955,954,954,956,958,955,955,953,954,956,958,956,956,956,958,957,958,957,955,955,956,958,961,965,964,965,967,969,971,971,971,973,974,976,979,981,976,975,976,975,977,975,974,969,969,971,974,979,980,978,971,970,968,967,963,960,956,958,957,957,953,950,952,955,954,953,951,949,948,950,951,951,948,947,948,949,953,950,946,943,942,937,931,926,920,913,910,919,943,974,1006,1048,1106,1162,1201,1216,1194,1128,1034,960,924,923,935,941,945,946,945,946,945,943,945,943,946,945,945,942,943,944,944,941,943,940,941,943,943,940,940,937,940,942,942,943,939,938,940,941,942,942,939,940,944,945,944,944,945,941,943,946,944,944,941,939,939,941,941,942,939,939,940,941,944,944,942,939,942,943.1,945,944,944,943,947,944,946,946,944,941,943,943,942,941,940,940,939,941,941,942,937,938,0
952,953,953,953,949,947,953,952,953,952,952,950,952,955,953,955,955,955,956,962,963,963,962,963,966,967,969,968,968,969,971,973,975,972,971,969,968,971,970,969,968,969,968,969,971,973,976,972,968,962,962,955,952,948,947,948,950,949,947,946,945,947,947,947,945,943,944,949,949,946,945,941,943,944,946,943,939,932,929,923,922,919,916,904,895,898,909,925,947,970,1001,1042,1098,1151,1186,1196,1178,1119,1037,963,924,920,929,942,946,946,944,942,943,947,946,945,943,942,943,944,946,945,942,941,942,945,943,942,943,943,942,946,947,946,945,944,944,944,945,945,943,943,944,945,947,949,947,945,946,947,949,947,945,945,947,949,949,947,945,946,946,951,949,947,945,948,947,949,948,946,948,949,949,949,949,948,946,946,951,950,949,947,946,946,949,951,947,948,946,949,949,951,0
955,948,952,952,955,955,954,953,955,958,958,957,957,956,958,960,966,966,964,963,967,968,969,968,969,970,971,974,978,975,976,973,973,975,977,973,971,972,973,970,971,968,973,974,975,971,968,964,961,959,957,955,958,957,955,952,954,956,957,955,952,951,949,950,951,951,948,949,949,951,950,952,950,948,951,952,954,953,950,947,945,938,935,927,921,911,913,929,953,980,1013,1061,1119,1165,1188,1180,1131,1053,984,940,924,928,934,942,944,946,946,944,943,939,939,943,945,943,943,941,943,947,946,945,945,945,945,947,946,946,944,939,942,944,945,944,943,939,941,943,943,943,942,941,943,940,943,942,942,940,941,943,945,945,945,944,945,945,943,943,940,937,941,943,945,946,941,943,943,944,945,945,943,940,941,944,945,944,943,939,939,939,940,939,934,935,934,937,935,930,933,932,0
957,958,958,958,956,956,956,959,959,959,955,954,956,958,960,962,963,963,969,970,973,972,971,972,974,977,977,980,977,977,980,978,979,977,975,973,976,978,978,974,973,974,978,983,985,982,978,970,970,967,967,962,958,956,956,955,954,954,956,953,955,956,956,955,953,950,953,950,955,956,952,948,952,955,954,954,953,948,946,945,939,933,929,922,915,916,925,943,965,992,1032,1087,1143,1184,1201,1183,1128,1050,981,939,924,926,934,944,946,945,945,944,946,948,947,947,944,942,942,946,946,943,943,941,942,945,945,944,941,941,941,944,946,946,942,941,943,945,945,945,943,942,942,944,946,945,942,939,941,943,942,943,941,939,939,942,945,946,944,942,942,944,946,942,940,940,941,941,943,940,941,939,942,944,943,944,944,942,944,945,945,943,942,939,939,942,942,940,938,935,936,937,0
958,958,960,960,958,958,959,961,961,961,958,958,960,961,963,963,965,961,964,969,973,973,972,971,973,977,978,979,980,980,981,984,983,983,979,977,976,978,981,976,976,974,977,982,984,980,973,969,967,964,963,960,958,959,960,958,958,957,956,955,956,957,960,959,957,955,955,955,957,956,955,953,956,956,956,956,955,953,951,950,943,935,928,925,920,917,923,941,968,997,1037,1084,1140,1186,1213,1208,1179,1113,1028,965,935,930,939,948,952,952,950,948,948,949,950,951,950,947,947,949,950,950,947,945,947,947,946,947,945,942,944,945,948,945,945,944,944,945,946,946,945,943,946,947,949,949,948,946,947,950,950,950,949,947,950,946,949,950,948,946,946,947,949,949,947,945,946,947,949,948,947,946,948,948,950,950,951,946,951,951,952,949,948,944,946,949,949,950,947,946,946,946,0
952,954,956,955,955,953,952,952,951,955,953,954,952,953,952,955,957,958,958,962,963,964,963,965,963,967,969,971,973,973,972,971,973,973,972,968,966,968,970,973,969,966,960,964,965,970,971,970,967,964,962,961,960,954,950,951,951,951,950,950,950,948,952,949,949,944,940,943,944,947,948,944,941,943,945,945,945,942,938,936,933,926,927,920,910,909,919,940,963,986,1020,1068,1121,1167,1193,1201,1182,1136,1069,1010,967,939,924,914,917,924,931,934,934,937,940,942,942,941,940,939,940,938,938,936,934,934,938,938,938,935,935,936,939,938,938,939,935,935,938,937,937,935,935,937,938,939,938,938,936,940,938,939,938,936,936,938,938,941,939,938,933,935,935,938,938,936,936,937,938,941,941,939,939,940,943,943,941,941,939,938,943,943,943,943,938,941,942,941,938,935,931,932,0
954,952,952,954,953,956,955,953,953,953,956,956,955,951,950,954,958,960,961,965,963,965,964,967,969,972,969,971,972,974,975,973,971,972,972,974,972,968,968,969,967,968,973,975,975,972,967,966,964,960,957,953,954,953,953,949,947,948,952,954,952,951,950,950,951,952,951,950,947,947,951,952,948,947,945,945,947,948,945,939,931,924,921,918,912,907,918,942,973,1003,1045,1095,1144,1186,1202,1190,1140,1061,983,934,919,925,931,937,941,941,941,944,945,943,939,937,941,941,941,941,938,940,942,943,940,942,940,944,945,947,944,944,944,944,945,944,944,944,942,945,942,944,945,943,942,941,943,944,945,943,941,943,941,942,943,943,942,943,944,945,943,943,944,945,946,945,946,945,940,941,943,944,944,941,940,942,945,944,943,941,937,941,941,944,943,940,938,939,942,942,943,941,0
960,961,960,957,957,960,959,961,960,960,955,957,960,962,960,960,956,958,960,962,962,962,965,968,973,974,974,973,972,976,980,978,978,981,980,979,978,978,977,975,973,976,977,975,977,978,980,985,980,975,972,970,966,964,963,963,960,958,954,954,957,957,957,956,954,954,955,957,955,953,950,954,955,957,957,957,953,953,955,953,945,934,928,923,919,915,924,945,973,1010,1053,1109,1161,1199,1209,1183,1118,1028,959,930,927,942,951,953,951,948,947,948,950,950,949,947,945,947,948,947,949,946,943,943,946,947,947,946,942,944,946,947,947,945,946,945,948,949,948,947,944,947,948,949,948,945,945,947,949,950,951,947,945,947,947,950,949,950,949,949,950,953,951,948,949,950,948,951,950,949,946,948,949,948,950,949,948,947,947,950,949,949,948,948,948,948,949,946,945,947,947,949,0
960,960,960,962,963,966,967,966,963,962,964,964,962,961,961,962,965,964,965,961,962,966,971,976,973,976,974,979,979,981,982,984,985,985,988,989,988,983,981,982,982,982,982,981,979,982,988,990,987,976,973,973,970,969,967,964,964,961,963,964,965,964,961,962,962,964,964,963,961,959,960,960,960,959,956,957,959,961,960,955,950,945,939,935,931,922,918,927,950,977,1006,1045,1099,1155,1188,1197,1171,1114,1036,970,938,932,941,947,951,953,953,955,954,954,952,955,956,956,957,957,953,955,956,957,956,954,951,952,951,954,955,951,952,954,953,954,953,954,952,957,957,958,956,954,954,955,957,955,953,953,950,953,954,955,951,951,950,951,953,955,955,955,956,957,959,957,955,954,954,953,953,952,954,952,951,955,955,958,954,955,953,954,956,957,954,951,948,947,953,952,953,950,0
961,964,962,961,963,962,960,962,964,965,964,961,959,959,963,962,966,961,959,960,966,968,972,972,971,972,974,978,980,980,977,980,983,983,982,982,978,976,978,979,977,974,971,972,975,981,981,975,968,969,969,965,962,959,956,956,959,961,962,961,958,958,959,959,957,955,954,954,954,955,954,951,952,954,953,955,955,954,951,948,943,939,936,930,920,916,926,946,972,1001,1041,1096,1147,1180,1191,1168,1106,1030,973,941,930,931,937,945,949,950,949,949,946,944,948,947,947,947,947,950,950,952,948,948,947,950,950,951,949,947,946,946,947,947,945,946,944,943,946,945,946,943,943,944,949,948,946,945,945,946,946,947,943,944,943,945,946,945,946,944,943,943,946,946,945,944,944,945,948,950,948,947,945,946,948,948,947,946,946,944,944,943,941,940,938,938,939,940,938,935,931,933,0
962,963,962,961,960,961,962,965,965,963,962,964,968,969,971,969,969,972,976,976,977,976,977,979,981,983,983,982,981,980,980,981,980,980,978,978,976,982,980,978,973,977,982,986,983,979,972,969,968,967,963,960,961,957,959,957,960,959,960,959,959,962,963,960,960,958,960,960,958,958,952,953,958,959,959,957,954,956,955,953,947,939,934,930,927,922,921,933,959,991,1026,1074,1127,1172,1201,1211,1191,1129,1048,978,939,933,940,948,952,951,949,948,953,953,950,949,947,948,951,950,950,951,948,950,949,951,950,948,949,951,952,952,953,953,950,951,953,954,954,954,952,952,952,954,953,951,950,952,954,953,954,953,950,949,952,954,955,954,950,950,953,954,955,952,950,951,952,954,953,951,951,950,951,954,954,952,952,953,955,954,955,953,950,951,953,952,951,951,948,947,949,950,0
965,965,962,965,965,967,965,965,962,964,967,968,969,968,971,975,978,976,976,976,975,980,980,981,984,984,982,983,985,983,982,981,979,979,984,984,982,979,980,985,988,989,983,975,971,969,968,967,964,962,959,960,959,962,959,958,956,957,958,959,960,956,955,956,958,957,958,956,956,957,957,958,957,955,949,945,938,936,934,934,929,928,922,914,909,915,926,949,974,1000,1036,1081,1129,1172,1196,1202,1170,1109,1027,967,937,934,937,947,948,950,950,950,952,952,950,947,951,952,951,951,949,947,952,951,953,949,948,949,953,953,952,951,948,950,953,954,953,951,948,951,953,953,951,947,946,949,953,951,952,953,951,951,953,955,955,951,952,949,953,952,951,951,950,952,953,952,951,947,948,951,953,957,952,952,947,948,949,952,952,951,949,951,953,952,954,952,950,950,951,950,948,946,0
955,956,958,960,961,957,957,958,962,962,961,958,960,961,964,967,968,971,972,971,972,973,972,974,973,976,978,983,982,979,977,979,979,978,979,976,976,978,977,974,974,973,977,980,983,981,976,971,968,968,970,970,966,960,957,956,958,958,957,954,952,954,954,955,954,953,951,952,953,954,956,952,950,950,953,955,954,950,947,942,936,932,926,916,911,914,927,951,973,999,1042,1096,1144,1174,1183,1164,1112,1043,987,950,930,926,930,936,939,942,942,942,940,944,945,943,942,943,940,945,945,946,945,945,942,944,944,942,944,943,942,942,944,946,946,944,944,945,946,947,946,942,942,942,941,942,943,940,940,940,941,942,941,939,939,940,939,940,942,942,941,942,942,944,943,943,939,940,942,944,943,941,940,942,942,944,942,941,940,942,944,946,944,941,940,941,941,944,941,938,934,936,0
956,955,954,952,954,957,955,954,954,953,956,957,958,956,953,953,958,961,961,961,960,964,964,968,971,968,967,971,977,978,978,975,973,974,975,974,973,971,970,966,968,969,972,973,972,969,965,964,963,957,953,954,954,954,953,950,950,952,951,953,951,949,947,948,949,953,950,947,946,946,950,952,950,948,947,948,949,950,948,943,935,931,928,927,919,913,917,934,959,987,1019,1061,1110,1156,1187,1194,1174,1121,1046,982,946,932,927,930,934,939,941,943,941,941,940,944,945,947,945,944,940,942,944,944,943,943,937,940,942,943,941,938,936,937,941,940,938,941,938,939,940,940,941,939,939,940,942,942,942,940,938,940,941,945,943,941,938,940,940,941,940,939,936,938,939,941,940,939,936,938,938,939,940,941,939,938,939,941,943,943,939,941,940,940,940,937,937,936,940,938,934,933,0
952,953,954,957,957,953,955,956,958,956,955,954,953,954,957,958,958,958,958,963,967,969,968,967,966,969,972,975,976,976,976,977,979,980,978,976,973,973,976,976,974,970,970,976,978,979,971,965,963,959,961,959,958,955,952,951,953,955,956,957,952,953,955,957,953,954,949,949,951,951,954,950,948,951,950,953,950,948,947,947,944,938,931,927,920,913,919,937,963,993,1026,1076,1131,1176,1202,1205,1165,1096,1018,960,933,929,936,945,948,948,947,945,944,943,945,942,946,945,943,943,945,947,947,943,943,944,947,948,947,943,942,944,945,947,945,942,943,943,945,946,945,945,943,942,944,947,945,944,945,947,947,949,949,948,945,947,946,947,948,946,944,944,946,951,949,947,944,944,946,948,949,947,945,948,950,951,951,949,947,949,949,951,950,949,944,945,943,950,947,944,942,944,0
964,959,959,958,960,962,963,961,958,960,962,963,964,965,960,962,964,969,970,972,974,977,978,979,978,978,976,978,979,983,983,984,982,985,984,986,984,982,979,979,980,980,980,978,974,975,978,983,987,985,979,974,973,971,969,963,960,959,959,958,958,959,957,956,957,960,957,955,953,954,953,954,955,956,953,954,956,956,956,953,944,937,933,930,924,916,915,931,953,982,1017,1061,1111,1159,1188,1189,1152,1088,1010,956,935,935,942,948,949,949,950,951,952,950,949,950,952,954,953,951,948,948,950,951,951,948,947,946,948,949,949,948,946,948,949,950,951,949,947,951,952,954,953,953,950,951,954,952,951,951,949,949,953,953,950,949,948,947,950,950,952,950,949,951,953,955,952,953,951,952,955,957,957,953,953,954,956,954,954,953,951,952,951,951,951,950,949,948,951,954,952,951,0
960,961,957,955,957,959,959,960,959,957,960,960,962,962,960,958,956,959,963,963,966,966,970,971,971,972,972,970,969,972,975,977,978,975,976,978,976,979,976,975,976,980,980,978,975,973,976,981,979,973,967,962,962,958,957,954,954,952,953,956,956,957,954,952,952,955,955,954,954,952,954,954,955,953,953,950,949,946,939,933,929,924,916,910,922,941,957,972,994,1023,1065,1118,1160,1189,1209,1218,1201,1162,1107,1045,994,955,937,931,933,939,941,945,949,950,945,944,944,942,944,943,944,943,945,946,948,947,943,940,943,944,946,948,945,945,944,946,942,943,942,942,945,947,945,943,940,937,941,943,942,944,942,941,942,944,943,946,946,944,946,946,946,945,940,940,941,942,945,945,944,941,941,944,944,947,946,942,945,946,948,949,946,943,940,941,941,941,937,931,933,931,932,935,0
950,950,952,956,954,951,953,954,956,956,953,953,954,954,957,956,956,958,954,961,964,966,969,968,967,969,970,973,976,974,973,976,979,979,976,973,972,969,972,975,973,971,968,970,974,977,978,975,970,968,968,966,961,957,953,953,953,952,952,949,948,952,953,954,955,950,950,953,953,954,955,953,953,952,953,953,953,952,949,950,946,939,931,926,919,912,912,925,952,980,1015,1062,1119,1169,1203,1203,1166,1094,1013,954,928,926,931,941,943,945,943,940,945,941,944,946,947,945,943,945,944,946,946,944,941,943,946,948,948,943,946,944,946,948,948,943,944,942,944,945,944,944,943,946,948,947,947,946,943,944,944,946,946,942,942,943,944,942,943,942,941,942,943,945,943,944,944,945,943,948,947,946,942,945,946,948,947,943,943,943,944,942,942,941,937,938,941,940,940,936,936,937,0
961,963,963,959,959,961,964,965,962,961,960,961,962,965,967,970,974,975,978,980,979,977,978,980,983,986,986,986,983,983,983,982,981,979,978,979,980,980,976,976,978,983,985,985,980,975,969,972,969,967,964,964,962,962,960,960,959,957,955,957,957,958,957,955,952,955,957,955,955,953,952,953,956,956,954,954,953,953,953,950,939,931,928,924,918,917,927,945,973,1005,1043,1094,1150,1193,1215,1219,1189,1120,1035,970,933,927,936,943,949,949,946,948,952,953,955,951,949,950,950,953,950,949,948,947,948,948,948,947,945,945,946,947,948,948,945,946,948,950,949,947,948,949,951,952,951,951,947,950,951,953,947,945,945,947,950,948,950,949,946,947,948,950,950,947,947,948,947,950,949,949,948,948,953,952,951,950,948,950,949,952,950,948,947,949,949,950,950,947,944,945,947,945,0
961,962,960,958,960,963,962,963,965,960,963,966,967,967,967,967,971,974,974,974,974,974,974,978,981,979,979,978,978,979,981,981,978,974,976,978,978,976,974,973,980,984,984,979,971,966,966,964,962,959,957,956,954,956,956,955,958,954,955,955,956,954,953,953,953,955,956,956,953,952,952,953,955,955,952,950,949,950,948,940,931,927,921,915,909,915,934,959,985,1015,1057,1109,1155,1186,1199,1187,1142,1068,994,948,930,931,939,947,949,945,947,949,953,950,952,951,950,950,952,951,949,948,950,950,950,948,947,945,946,948,949,949,945,944,945,950,950,950,951,946,947,949,952,948,946,946,947,949,949,949,948,946,948,951,948,948,947,946,946,948,948,947,945,944,947,948,952,950,949,950,947,950,951,952,951,949,948,951,950,952,950,945,947,947,946,946,946,942,946,948,946,948,0
962,959,961,958,961,960,959,958,958,961,962,963,962,962,964,967,969,970,970,968,971,973,974,975,974,975,979,981,980,980,978,977,976,976,978,979,976,970,974,973,977,979,981,976,972,969,967,961,960,955,954,954,952,951,953,952,952,952,954,955,953,949,951,954,955,956,957,953,951,954,955,955,953,950,950,951,952,947,941,933,931,932,929,925,913,907,914,932,955,983,1016,1062,1115,1160,1192,1200,1169,1104,1024,968,937,922,927,932,938,943,942,942,941,943,941,945,946,945,943,942,942,945,946,944,944,945,944,947,947,945,942,940,942,944,946,942,941,939,939,943,944,939,941,941,942,943,944,942,943,941,942,944,945,944,943,943,941,943,944,943,942,940,941,944,945,944,941,940,942,944,945,944,941,942,941,941,943,942,940,936,938,938,939,937,937,936,934,934,934,931,930,927,0
954,955,955,956,956,955,952,954,955,957,955,955,953,955,957,959,960,963,963,964,967,968,971,969,970,975,976,978,977,978,975,975,976,974,973,973,970,971,971,971,973,974,977,978,974,972,968,963,956,958,957,958,955,954,952,952,952,951,951,953,951,952,952,952,953,949,949,951,952,950,952,948,946,947,947,951,949,949,944,945,938,932,928,922,910,907,921,947,976,1007,1049,1105,1159,1197,1211,1192,1135,1052,984,943,927,927,934,947,947,947,946,947,945,946,947,947,946,945,946,946,945,948,947,946,943,944,945,946,946,946,943,949,946,948,946,947,946,947,950,951,951,948,946,946,947,949,948,946,946,945,949,947,947,944,946,947,947,949,948,945,943,947,948,949,948,948,946,946,948,953,953,950,947,949,947,949,946,946,944,944,947,946,946,943,941,943,943,943,942,939,938,940,0
965,964,962,959,961,961,964,964,962,960,961,963,964,964,964,964,967,972,975,976,975,974,976,975,978,980,978,977,978,983,984,985,982,981,983,983,983,982,979,978,979,980,980,981,984,986,986,983,979,974,970,964,963,960,960,959,957,956,957,955,958,958,955,955,954,957,957,957,956,955,956,960,959,959,957,955,954,945,938,932,923,915,909,912,933,958,977,998,1024,1056,1094,1133,1164,1187,1210,1231,1234,1208,1138,1047,975,940,939,946,953,952,951,953,954,952,951,946,947,949,950,950,948,945,947,949,951,950,947,944,947,947,950,949,947,945,946,950,952,952,951,950,950,951,953,952,950,948,948,951,950,951,948,946,948,948,951,951,949,947,947,949,952,953,950,949,950,950,953,951,952,947,947,948,952,951,949,948,950,950,950,952,947,945,948,949,951,949,947,946,949,950,950,950,0
957,959,961,960,961,960,962,962,962,963,964,962,962,964,967,966,969,969,969,970,973,976,975,976,975,975,980,983,986,985,986,984,985,984,982,981,980,982,982,984,982,980,981,980,977,979,979,980,984,983,978,974,972,967,964,961,958,959,957,956,955,958,960,960,959,957,957,957,958,958,957,954,953,954,955,956,954,952,946,944,937,931,928,921,910,908,920,944,974,1005,1044,1103,1156,1190,1200,1176,1116,1038,976,939,927,928,938,944,945,944,944,945,946,949,951,950,947,945,943,946,946,947,948,945,944,948,948,949,947,945,943,944,945,945,948,945,946,945,944,946,947,946,944,946,948,948,947,948,947,950,949,950,950,949,947,947,949,947,948,944,943,944,947,948,949,945,943,943,945,946,948,947,945,949,949,948,947,949,947,947,949,948,944,943,941,942,941,944,942,942,941,941,0
954,956,955,956,958,957,956,960,959,958,954,954,957,960,962,963,965,965,969,970,973,971,974,974,974,979,980,980,978,974,974,974,977,978,975,976,977,977,978,973,972,969,971,973,978,979,976,970,967,965,963,960,953,951,952,951,953,953,952,951,951,953,955,953,950,947,950,954,954,955,952,950,950,952,955,952,951,947,946,943,938,934,930,921,914,911,923,940,965,998,1040,1096,1148,1191,1208,1190,1133,1056,988,945,926,921,930,939,942,942,941,942,943,945,945,945,943,942,944,943,945,944,942,940,941,941,943,942,938,935,935,939,941,940,940,939,940,939,942,941,937,936,937,941,941,942,942,940,938,937,939,940,940,939,939,939,940,939,939,939,940,941,941,941,940,938,939,940,941,940,940,938,940,940,942,943,939,937,936,940,941,938,936,934,934,935,935,935,931,929,926,928,0
950,947,949,952,951,951,948,948,950,952,952,954,952,951,954,955,957,959,960,958,960,964,964,965,963,965,967,970,970,973,971,970,969,971,969,970,967,965,965,967,969,968,964,966,967,973,976,970,964,956,956,954,952,948,946,943,944,947,947,947,943,942,943,946,944,945,941,941,943,945,946,946,943,941,941,944,943,938,928,919,914,910,905,895,896,910,936,957,974,994,1021,1056,1106,1157,1195,1215,1206,1153,1067,985,935,916,922,927,937,935,936,936,936,934,933,933,934,933,932,930,931,934,936,934,935,932,932,936,935,935,934,933,934,933,937,933,934,933,933,935,936,937,937,934,935,938,936,934,934,933,932,936,937,935,933,932,933,936,935,936,934,931,934,933,936,936,934,929,933,934,934,936,936,933,936,936,937,936,935,933,934,936,937,934,935,933,934,935,935,933,930,930,0
942,942,941,941,943,945,943,942,942,944,945,945,945,943,946,950,951,953,953,953,954,956,958,959,956,955,955,959,964,963,963,960,964,961,965,963,960,958,960,964,965,962,959,960,964,968,965,958,951,947,946,945,945,942,940,936,938,940,941,942,938,937,938,938,940,940,936,935,938,938,939,938,938,935,936,933,938,936,933,928,922,915,911,908,897,891,898,922,953,984,1019,1072,1132,1175,1193,1183,1134,1048,967,920,907,912,920,924,930,929,930,932,928,927,927,930,931,929,928,926,927,929,930,929,926,925,925,925,928,926,927,925,926,927,928,929,927,926,927,928,929,927,927,922,925,926,927,929,929,925,929,929,929,930,925,925,925,926,930,927,925,923,925,926,926,928,926,924,925,926,929,928,926,924,928,927,929,928,928,928,930,931,932,929,929,928,926,928,930,928,925,923,0
943,941,940,939,939,940,939,940,939,936,936,939,940,940,941,939,944,948,951,950,950,951,953,955,958,960,960,958,959,961,961,961,959,956,955,957,959,957,953,948,952,955,963,965,961,957,951,950,949,947,943,938,938,938,938,937,934,932,932,932,933,934,934,931,930,930,932,929,928,926,928,931,931,928,927,925,925,926,926,919,913,904,902,900,893,888,893,909,935,962,998,1049,1103,1144,1169,1167,1130,1061,985,933,906,901,907,915,917,917,917,919,923,921,923,921,921,926,925,924,926,920,922,920,923,923,923,921,921,924,922,921,919,918,919,917,920,919,920,918,920,920,922,921,922,918,918,920,922,923,919,918,919,922,925,924,922,920,920,921,923,924,922,920,923,921,922,920,923,923,921,919,924,925,925,923,925,926,929,926,925,922,923,924,924,924,923,921,923,923,921,922,0
937,939,942,940,936,935,937,938,938,939,938,939,942,942,948,951,950,944,946,950,953,954,952,948,950,953,958,959,959,958,960,960,961,960,956,953,954,956,956,952,950,947,950,956,959,957,948,946,942,940,940,936,934,932,935,933,937,935,934,932,931,932,933,933,931,928,931,933,933,930,930,929,927,930,928,932,928,927,927,925,919,916,910,905,897,890,898,916,941,968,1008,1057,1111,1159,1184,1190,1156,1093,1016,954,918,903,899,906,915,920,922,918,921,924,925,925,923,923,923,925,924,924,924,920,923,925,925,924,922,921,922,924,928,924,923,920,921,923,926,922,923,924,923,926,928,926,927,924,924,926,927,925,923,923,922,924,926,926,924,922,921,925,925,926,921,922,923,925,925,927,926,922,925,927,928,928,925,922,920,922,923,921,920,916,916,920,918,917,916,913,913,916,0
945,945,943,940,940,943,945,946,942,941,941,942,946,946,944,945,945,949,950,955,954,956,958,960,964,963,960,960,962,967,969,968,966,965,963,964,964,962,961,959,963,963,961,961,962,963,969,973,972,965,959,956,954,954,952,949,948,943,944,943,946,943,941,939,940,941,940,942,939,939,938,942,942,944,940,938,939,941,938,934,926,916,914,910,905,903,913,939,973,1008,1056,1113,1165,1201,1225,1233,1219,1172,1094,1010,943,914,912,917,924,933,933,935,935,936,933,931,931,931,931,931,928,927,928,930,930,932,932,929,929,930,933,933,932,932,932,933,934,934,933,929,931,931,934,934,933,928,930,935,937,936,934,932,932,935,938,939,934,932,933,934,936,935,936,934,935,936,937,934,934,933,933,932,934,937,931,931,934,937,938,937,934,931,931,932,933,933,932,930,930,932,934,933,0
945,946,947,949,949,948,946,948,949,949,951,950,950,953,952,954,957,954,954,956,960,965,965,963,961,964,967,967,967,967,970,969,972,975,974,972,970,968,968,971,971,971,969,970,973,976,978,976,969,962,963,960,958,954,950,949,951,950,950,950,948,947,948,950,952,950,947,949,949,948,948,945,944,944,946,946,946,945,941,939,937,929,924,919,910,903,905,924,952,978,1013,1064,1124,1170,1195,1191,1148,1069,992,941,919,921,930,937,941,941,942,943,941,940,941,944,941,940,938,940,943,942,944,941,938,940,939,943,942,940,937,938,939,941,940,939,937,939,940,942,942,940,939,941,943,944,943,944,942,940,943,945,941,942,938,939,941,941,942,940,938,939,942,942,944,943,941,940,943,944,946,944,944,943,945,946,943,944,938,938,940,941,943,939,937,938,939,941,939,939,936,937,0
948,948,950,949,948,946,945,946,953,954,952,949,947,948,949,954,953,953,953,955,958,961,962,959,961,964,967,971,973,970,971,971,973,973,971,969,966,969,969,967,965,964,966,970,969,965,962,955,951,950,946,947,945,942,941,943,945,944,943,944,943,942,946,945,945,941,938,938,941,942,943,942,942,940,942,941,939,933,924,922,920,920,910,901,893,896,910,929,952,977,1016,1072,1127,1166,1183,1168,1111,1037,974,935,917,914,922,928,934,934,935,936,933,934,934,936,936,935,934,933,935,937,938,936,933,935,935,936,937,932,932,933,931,934,935,930,927,931,932,932,934,934,930,932,933,936,937,935,934,937,936,935,935,934,934,936,937,936,935,933,929,932,934,937,936,935,933,934,937,937,934,934,932,933,936,938,939,937,932,931,935,936,936,930,928,926,928,929,927,926,925,926,0
946,948,948,948,946,948,948,949,948,946,942,943,945,945,947,943,943,947,950,957,959,959,955,957,959,960,960,962,962,964,966,968,967,965,963,965,966,967,966,964,961,962,962,966,969,968,964,960,956,956,950,945,940,941,939,941,942,940,939,939,938,941,942,939,936,935,937,940,942,940,937,939,939,941,940,938,937,934,930,926,920,917,913,906,901,900,913,935,959,989,1029,1077,1132,1171,1194,1195,1160,1089,1007,946,920,913,918,926,933,933,931,931,934,936,934,935,931,936,934,937,936,934,932,930,933,933,932,929,927,929,931,933,932,932,932,932,931,934,933,932,928,930,932,931,933,932,930,933,934,933,933,933,930,928,930,933,932,930,928,930,931,933,932,932,931,930,933,935,935,934,933,934,936,939,937,936,934,933,933,934,935,932,932,930,931,932,932,929,926,928,928,929,0
947,943,947,950,950,952,949,950,949,953,956,955,956,955,959,962,963,963,964,963,964,967,971,971,970,968,969,969,971,971,969,965,966,966,970,969,967,964,965,970,976,975,972,965,962,961,959,954,951,947,948,946,950,950,949,948,946,947,946,948,946,944,943,946,947,947,945,941,943,944,947,944,944,940,940,937,934,925,920,914,913,911,908,899,892,902,923,945,976,1007,1047,1101,1156,1197,1215,1206,1156,1078,996,939,920,921,926,931,935,938,937,937,934,933,934,934,936,935,933,932,932,934,934,935,934,931,933,936,937,937,936,932,933,937,936,933,934,932,932,934,935,936,933,931,933,935,936,937,935,933,936,939,938,938,935,934,938,937,939,938,937,934,934,934,937,934,936,933,935,936,937,934,933,933,936,936,940,940,938,935,935,939,939,940,940,936,937,938,939,937,935,932,0
947,951,949,948,946,947,949,952,950,948,946,946,949,951,949,952,950,953,960,962,964,964,962,962,967,970,973,969,969,970,969,970,968,965,962,963,965,967,967,965,961,961,962,964,966,965,967,971,971,966,963,959,953,951,949,948,947,947,943,944,947,947,945,944,940,942,943,944,943,942,939,940,940,944,943,941,938,938,937,933,925,916,912,906,898,898,911,935,959,986,1024,1073,1128,1168,1191,1195,1172,1122,1049,986,939,917,907,907,914,923,928,932,934,936,936,937,934,934,934,935,937,934,933,932,931,937,935,934,934,932,933,935,935,931,930,934,933,939,938,938,933,936,937,939,937,937,935,934,936,936,937,936,936,935,939,940,941,939,935,934,937,939,938,934,934,936,934,939,937,935,934,935,936,939,938,934,934,935,938,938,937,937,935,935,938,939,938,935,937,938,938,939,0
944,942,941,943,944,944,942,940,940,942,944,941,940,938,939,942,945,948,949,950,953,955,957,957,957,957,962,964,963,965,966,964,964,965,965,963,961,958,959,959,960,961,958,953,955,960,965,963,959,949,948,947,945,943,940,937,938,940,943,944,941,937,936,934,938,936,935,934,933,934,937,936,934,932,935,936,937,938,937,932,926,922,919,914,905,895,895,913,937,963,997,1045,1104,1155,1183,1182,1144,1070,995,944,920,912,914,923,931,932,933,933,934,931,932,931,930,930,930,926,927,930,931,932,931,930,928,929,931,933,929,928,932,934,936,935,935,932,933,933,931,933,928,931,931,933,933,932,929,928,930,931,933,931,934,933,934,937,938,936,935,933,933,934,936,937,933,931,933,936,936,936,936,932,933,934,938,937,933,929,929,930,932,930,931,927,926,931,932,932,929,926,0
945,945,947,948,947,948,948,948,950,948,950,948,947,944,949,951,955,953,954,954,958,961,962,963,961,961,964,969,968,967,966,967,970,970,969,969,967,966,965,967,967,967,964,964,965,966,970,970,967,964,961,960,958,952,946,945,941,945,944,945,943,941,944,943,944,943,943,942,943,944,942,940,938,939,940,943,940,941,937,935,930,924,920,915,905,899,906,926,956,985,1021,1073,1128,1173,1201,1200,1160,1089,1008,953,924,914,917,927,933,936,935,936,935,936,938,939,941,937,934,935,938,939,938,936,932,933,932,933,936,934,933,932,934,937,938,936,932,932,934,936,937,937,936,936,939,939,938,937,935,935,936,937,933,936,933,935,934,936,936,935,934,935,937,938,939,938,936,937,939,938,941,937,934,936,938,939,940,937,935,936,937,938,936,933,932,930,933,933,931,930,927,927,0
952,953,955,954,949,947,952,953,956,955,954,951,952,955,956,956,956,955,957,959,966,968,967,965,966,969,969,972,974,972,975,978,978,976,976,974,971,974,975,977,974,968,970,976,980,982,977,967,966,961,962,962,956,952,955,955,956,951,953,948,951,953,952,953,952,949,948,950,951,952,952,949,949,949,953,951,951,946,941,938,930,924,919,908,904,912,935,963,992,1023,1070,1131,1183,1221,1234,1219,1167,1078,995,942,920,924,937,946,946,944,942,940,941,943,942,941,940,937,937,939,940,939,938,937,938,939,942,941,940,938,937,938,939,938,936,936,936,938,940,939,939,937,938,937,938,939,938,937,939,940,940,940,940,936,937,938,939,937,936,935,937,937,939,939,937,935,937,935,940,939,938,936,937,940,940,940,941,938,938,938,941,939,937,934,935,936,937,936,937,935,936,936,0
956,953,951,951,954,954,954,953,951,950,954,955,955,954,952,954,959,960,965,965,962,967,968,971,974,972,971,973,976,979,978,975,971,971,971,970,973,972,969,967,969,972,979,978,974,967,964,967,964,959,955,955,957,959,960,958,954,953,952,953,952,951,949,948,949,950,950,950,945,945,947,946,946,948,946,948,947,950,948,944,939,932,924,923,916,905,901,917,946,979,1019,1071,1126,1173,1194,1176,1114,1028,954,918,919,932,941,945,941,941,942,946,947,944,939,939,941,941,943,939,939,940,940,940,942,940,939,939,942,944,945,944,942,941,943,945,947,943,942,944,943,946,946,946,944,943,945,944,944,944,940,941,944,945,944,942,942,944,944,947,945,943,941,942,943,947,946,945,943,946,947,946,945,942,941,940,943,945,944,941,938,938,940,942,940,937,939,938,939,941,941,939,0
940,942,941,943,947,946,945,946,949,949,948,946,945,948,948,955,957,955,957,955,959,960,960,957,955,958,962,962,964,962,961,964,966,966,963,963,962,961,963,964,960,960,961,964,967,965,958,955,948,945,944,945,940,937,935,935,936,938,939,937,935,937,939,941,939,936,935,934,937,938,939,939,935,934,935,936,930,923,915,910,905,895,890,896,910,930,950,966,986,1010,1041,1084,1127,1164,1188,1192,1162,1091,1016,957,920,906,908,918,926,929,930,927,926,928,929,930,929,928,924,923,923,927,929,927,924,924,927,930,927,925,925,925,928,928,932,932,930,929,928,929,926,926,923,924,927,928,927,928,924,925,928,929,929,930,926,929,928,930,927,928,926,927,926,926,925,924,921,921,925,927,931,929,926,925,924,925,924,922,923,922,924,923,922,919,915,916,918,918,917,914,912,915,0
937,940,941,939,939,938,937,940,940,941,940,937,938,941,946,948,947,947,949,948,954,957,957,958,957,960,963,966,964,959,959,959,960,957,958,955,955,956,955,957,959,959,960,956,955,952,948,942,940,941,942,941,938,937,937,937,937,938,937,934,932,934,937,936,935,933,933,934,934,935,935,930,931,933,935,934,935,932,930,926,920,916,911,902,896,896,911,935,961,992,1036,1092,1144,1181,1194,1172,1115,1040,972,927,910,908,913,923,925,929,927,927,926,927,930,929,926,925,924,923,926,925,924,925,925,925,929,929,926,925,926,928,928,928,926,924,924,928,929,927,928,923,927,928,931,928,926,925,926,927,927,929,926,925,924,926,928,927,925,924,927,927,929,928,927,925,924,926,927,927,925,924,925,927,929,930,927,926,928,924,927,929,926,923,925,924,925,924,920,918,919,921,0
942,941,942,943,944,945,944,941,942,945,946,945,947,948,951,955,960,961,961,956,956,961,962,962,960,961,961,965,966,966,967,963,963,964,964,962,959,957,959,960,962,961,961,962,968,970,967,961,956,951,951,949,947,946,939,937,939,941,942,943,941,938,938,940,941,942,941,936,938,941,942,940,939,937,938,937,939,936,931,921,914,913,910,903,896,894,905,930,959,988,1023,1070,1127,1175,1201,1210,1191,1137,1056,984,941,917,912,912,920,927,935,937,936,935,933,933,934,933,930,927,927,928,929,928,928,926,926,926,928,930,928,925,926,928,932,932,933,928,928,932,933,933,932,926,929,929,931,934,931,929,930,931,933,934,933,930,929,933,935,935,934,930,931,933,934,935,932,929,929,931,934,934,929,930,930,930,932,934,930,930,929,931,934,935,931,930,930,933,931,934,932,931,0
948,949,947,947,948,949,950,948,949,948,951,955,956,954,955,959,961,961,963,961,961,963,966,968,970,970,967,968,968,969,969,966,964,966,967,969,969,966,967,971,974,972,966,961,956,950,949,950,950,946,944,944,946,947,946,943,941,943,943,944,947,945,941,942,944,945,943,940,940,939,941,942,941,936,927,920,916,914,908,898,888,885,890,895,905,919,931,946,958,979,1014,1061,1112,1158,1186,1189,1156,1095,1017,954,924,918,923,930,933,934,934,937,938,936,934,933,933,936,937,936,934,934,936,939,939,939,933,933,938,939,936,936,934,935,937,939,940,938,937,938,937,938,938,935,934,934,937,938,939,939,937,937,941,940,938,937,935,935,936,936,936,936,936,934,937,938,939,940,936,935,940,940,940,939,937,939,942,942,940,938,936,937,935,941,938,940,937,937,938,939,939,938,0
943,941,945,946,946,949,946,946,948,948,947,946,942,944,946,948,947,946,948,952,954,959,958,958,958,955,962,965,967,968,968,969,971,969,970,969,964,965,967,965,964,959,959,963,967,967,962,956,950,948,946,948,948,947,942,943,945,946,946,942,938,941,940,943,943,943,943,942,943,942,941,939,939,941,941,943,943,942,939,937,935,927,920,915,908,901,903,919,948,978,1014,1065,1124,1170,1191,1175,1120,1039,969,930,915,915,923,930,933,936,936,935,935,934,935,934,936,934,932,931,935,935,934,933,931,930,932,934,933,933,931,932,936,937,936,934,933,934,935,935,935,933,933,935,936,936,933,929,931,931,933,936,936,935,935,936,936,937,936,933,931,930,929,934,935,936,934,932,934,937,937,933,932,931,932,934,933,933,931,933,933,935,931,930,928,927,926,927,928,925,921,921,0
952,951,949,948,949,952,953,950,948,951,954,953,953,953,950,952,954,957,955,954,953,955,959,962,962,963,963,963,967,969,971,971,972,975,976,979,976,977,975,972,976,978,975,973,974,973,972,972,976,976,975,974,970,967,963,958,955,955,953,953,952,951,951,950,954,954,953,951,949,949,952,953,953,952,948,947,949,950,947,942,935,926,923,919,908,905,915,942,972,1007,1048,1102,1151,1193,1210,1196,1139,1056,981,933,918,916,917,914,917,922,932,942,942,939,938,938,939,942,942,939,938,939,940,943,942,942,942,940,943,945,945,942,941,940,942,944,942,940,940,939,941,941,943,941,940,938,939,943,942,942,940,941,944,947,945,945,943,943,944,946,945,943,940,940,943,946,944,942,940,939,942,944,945,943,942,940,944,943,943,942,939,941,941,944,943,941,938,940,942,940,939,940,0
956,957,955,958,960,959,960,957,954,956,959,960,957,955,958,958,963,963,967,967,969,968,971,972,973,974,975,979,982,986,980,980,978,978,980,977,975,972,974,976,978,978,975,970,967,973,978,981,982,979,972,967,968,963,961,957,955,957,957,956,956,953,953,953,955,951,947,948,947,949,951,950,949,948,948,949,950,949,946,939,933,927,927,920,913,907,918,947,977,1005,1047,1097,1151,1192,1209,1196,1143,1063,980,935,923,928,937,941,943,946,946,945,944,942,941,944,945,943,943,943,943,945,948,946,943,943,942,943,945,945,943,942,943,943,946,944,943,940,939,943,944,945,945,944,944,944,947,946,945,945,944,947,947,945,945,944,944,945,946,945,944,942,942,943,946,947,945,943,942,944,948,947,946,945,945,947,947,946,944,945,944,946,947,945,943,943,940,942,945,943,942,939,0
957,957,957,955,953,953,954,957,956,954,952,955,959,957,955,954,956,959,963,966,971,973,969,972,974,971,971,973,974,974,979,979,976,974,974,974,975,975,974,975,973,974,975,971,971,969,969,975,982,983,977,969,964,966,964,958,955,954,951,953,956,954,952,949,950,950,952,951,949,948,947,952,952,952,952,948,946,945,949,943,934,926,920,915,910,904,911,928,957,990,1032,1087,1138,1170,1178,1155,1100,1024,962,927,920,929,940,942,939,939,938,938,942,940,936,937,935,936,939,941,939,936,933,934,938,939,938,935,936,938,941,941,938,936,935,937,941,940,936,937,935,939,940,938,938,936,937,937,939,938,936,936,935,936,939,938,938,937,937,937,938,937,937,938,939,940,943,940,938,937,935,939,942,940,937,936,935,937,938,938,936,932,929,934,936,936,936,929,932,934,936,936,0
945,945,944,941,940,938,940,941,942,942,941,943,946,949,947,946,946,946,947,948,951,950,950,950,955,957,956,956,956,957,960,963,963,964,962,959,961,962,960,959,961,960,959,960,959,958,960,963,963,960,952,945,946,941,942,943,940,937,935,933,937,939,940,937,938,933,935,938,938,937,933,934,936,938,941,935,931,934,935,934,925,917,913,909,903,896,898,909,932,959,994,1041,1094,1141,1171,1178,1150,1092,1015,952,920,910,913,922,925,926,924,926,929,928,930,928,927,928,927,930,929,930,928,927,932,933,930,930,929,927,931,933,934,932,932,931,930,932,930,927,923,924,927,928,927,928,928,927,929,931,931,930,930,929,930,930,929,929,926,928,927,929,929,926,925,925,927,928,930,926,926,926,927,930,929,927,927,924,928,929,929,928,924,923,925,927,926,920,919,918,919,921,0
944,944,942,943,943,946,946,947,947,944,948,948,955,956,958,959,960,961,962,962,962,961,963,969,968,969,970,967,965,965,967,966,962,960,962,964,967,964,961,962,966,969,972,968,960,958,954,954,953,949,947,944,938,941,945,947,943,941,942,942,944,944,942,943,941,944,945,944,943,942,943,945,945,944,943,942,940,940,941,928,920,916,915,914,905,901,906,926,955,986,1026,1074,1127,1169,1194,1199,1162,1088,1002,943,918,921,933,938,940,940,936,938,938,939,938,935,934,936,940,939,937,938,935,938,941,939,940,936,935,938,940,940,939,938,935,940,943,940,938,936,935,938,941,938,936,936,936,938,938,940,938,936,934,936,940,939,940,938,936,939,940,944,942,940,938,940,943,942,938,936,937,940,941,938,938,937,937,937,939,937,937,936,936,937,939,939,935,936,933,935,936,936,0
959,958,958,957,957,955,956,958,958,955,954,956,961,963,967,967,968,967,970,975,973,968,967,966,970,973,975,976,972,974,977,978,979,975,975,973,974,973,976,974,973,969,973,976,979,980,978,972,967,966,965,960,955,954,955,956,955,951,950,949,951,951,951,952,950,949,949,949,951,949,949,947,950,952,953,950,949,944,940,935,928,923,916,909,905,907,920,943,967,995,1034,1087,1141,1178,1194,1187,1144,1080,1004,950,925,924,933,943,946,944,942,942,946,949,947,945,941,942,944,945,947,946,943,942,946,945,946,944,939,942,945,946,944,944,943,942,945,945,946,943,944,945,945,947,946,945,943,944,947,949,947,946,943,944,946,944,943,942,944,941,943,946,947,944,942,942,946,948,950,947,945,946,949,947,946,946,945,942,945,948,944,944,944,942,942,944,942,944,941,939,941,944,0
954,955,953,955,958,959,957,957,955,958,959,959,958,958,962,966,970,971,968,964,965,970,976,977,977,977,977,978,981,980,978,978,973,975,977,976,975,970,969,970,972,975,978,979,979,984,984,978,971,965,963,962,962,960,956,955,952,953,956,956,954,952,952,951,952,949,948,947,948,949,950,949,950,949,947,951,950,947,944,936,932,929,929,920,908,903,915,935,961,988,1024,1071,1123,1163,1182,1176,1136,1073,1002,952,929,922,926,931,936,937,941,939,941,939,937,945,947,947,944,942,940,942,943,942,944,940,937,940,943,943,941,941,940,940,944,942,941,939,938,941,941,942,941,940,940,941,945,944,943,941,941,940,941,939,939,937,937,939,941,941,940,939,938,940,942,942,942,941,939,943,944,944,942,941,941,943,945,947,945,945,941,945,946,945,943,941,939,941,941,941,939,937,0
954,952,950,949,950,951,952,953,952,953,950,953,956,955,953,952,951,953,958,958,960,963,964,969,970,967,965,967,970,972,974,975,975,973,971,974,975,971,971,969,966,967,967,967,966,968,969,967,967,964,958,954,949,952,954,953,952,949,951,952,951,948,948,946,944,946,948,948,948,944,944,946,948,948,948,946,946,947,949,945,938,930,926,923,917,908,906,921,947,979,1012,1055,1107,1151,1179,1188,1166,1099,1022,964,932,922,925,933,939,942,938,942,945,946,944,942,939,941,942,942,941,940,939,941,942,942,942,941,938,938,939,940,939,938,937,939,939,939,937,936,937,939,940,940,941,939,938,940,941,938,940,937,937,939,939,938,938,934,936,938,943,940,937,938,937,937,940,939,937,939,940,941,942,942,938,938,936,937,939,938,933,933,930,931,931,931,930,926,927,930,931,931,0
953,951,950,952,953,953,953,952,952,952,957,957,953,952,951,955,957,955,952,952,952,955,963,965,967,967,967,969,971,972,976,975,973,978,978,975,973,972,973,972,973,973,971,970,968,967,969,975,977,977,970,966,966,962,958,954,953,953,953,952,950,947,947,950,950,950,949,947,945,950,952,951,950,949,949,950,951,950,943,933,924,922,920,910,905,913,935,969,1003,1044,1096,1150,1190,1221,1228,1205,1155,1098,1045,1008,980,956,937,922,910,908,920,932,941,941,939,941,943,941,940,937,937,938,940,939,939,937,937,941,943,942,941,942,942,941,944,943,940,938,937,940,943,939,938,938,939,941,942,943,940,939,938,941,943,943,942,940,939,942,944,941,944,942,942,944,946,946,943,942,939,941,943,944,942,939,940,941,943,942,944,940,941,939,943,940,939,938,936,941,940,939,940,936,0
954,955,951,952,952,953,951,952,952,951,951,954,955,953,953,952,954,957,956,957,957,957,962,966,970,968,965,965,967,970,972,973,973,972,974,973,975,976,974,972,972,973,972,971,970,969,971,972,974,976,978,971,967,965,957,958,954,950,952,953,952,951,949,948,952,952,951,951,949,948,950,948,949,949,946,947,949,948,947,941,930,923,920,917,909,905,918,941,974,1011,1057,1112,1158,1192,1211,1222,1206,1162,1100,1024,963,929,921,923,930,935,941,941,940,940,939,937,941,942,942,941,941,940,942,942,944,942,939,937,940,941,943,942,938,939,939,944,941,942,941,939,941,943,943,942,942,942,942,946,947,946,943,942,945,946,945,943,944,943,942,945,946,945,944,943,944,946,946,943,943,941,944,946,945,944,941,942,946,947,944,944,940,943,944,944,945,944,940,937,941,945,944,940,0
946,946,947,946,947,947,946,946,951,953,951,950,949,949,951,950,953,955,958,960,964,964,960,959,962,963,966,969,969,966,967,969,968,967,964,964,965,969,969,966,964,965,966,971,968,962,957,953,948,945,948,944,942,941,941,943,947,944,943,939,942,945,949,947,945,944,944,946,946,946,944,942,942,942,939,939,940,936,935,933,928,923,918,911,900,898,907,926,950,974,1008,1060,1115,1154,1177,1171,1132,1063,997,947,919,911,918,926,931,933,932,930,931,932,935,937,936,936,934,933,935,933,932,933,932,935,937,936,934,933,934,932,935,934,934,933,930,932,933,935,932,933,933,933,932,931,931,929,931,934,935,935,933,932,933,933,936,936,934,933,932,935,937,935,933,931,927,929,933,935,935,934,933,934,937,935,934,934,932,934,936,935,932,929,929,931,932,930,928,924,924,927,0
950,947,944,946,947,951,951,947,948,947,947,951,952,953,954,954,960,962,964,963,963,963,966,969,967,969,970,970,971,973,971,967,967,964,965,968,969,966,963,962,968,975,974,969,964,959,957,955,952,952,950,947,946,947,947,947,946,944,943,945,947,945,944,942,942,946,945,945,944,944,946,950,950,948,948,945,947,948,944,939,932,925,921,920,912,905,911,931,962,991,1030,1083,1134,1175,1196,1187,1139,1065,988,936,919,920,929,936,938,936,938,941,943,940,939,937,939,941,941,940,940,939,941,944,942,944,940,941,941,944,942,942,939,937,940,942,943,940,937,939,941,940,941,942,938,938,940,943,944,942,941,941,943,944,944,942,943,941,944,944,941,940,943,940,941,942,942,940,939,941,941,942,943,942,938,939,942,943,943,942,940,939,939,941,939,938,937,935,936,934,934,932,0
961,960,960,958,959,959,959,960,957,958,962,965,965,962,962,962,966,967,970,972,974,972,971,974,975,974,975,975,979,985,984,983,980,979,980,981,977,980,978,977,978,978,979,980,985,988,987,982,976,973,971,967,964,964,964,961,957,956,956,961,959,958,956,954,958,960,957,958,956,955,957,956,958,956,954,954,953,954,953,945,938,929,927,925,914,910,915,936,964,997,1032,1081,1137,1185,1213,1214,1172,1092,1009,950,928,931,943,950,951,948,949,952,953,950,949,949,951,952,952,949,946,946,947,949,948,950,947,948,948,950,950,947,945,944,947,951,949,947,947,946,947,949,948,948,946,947,948,949,946,946,948,948,951,954,951,951,951,949,951,950,949,949,948,947,948,951,952,952,950,949,951,953,953,951,951,951,950,953,951,952,951,950,952,955,956,952,951,949,951,952,951,950,0
964,967,965,963,963,964,965,965,963,962,960,961,964,965,964,965,964,968,972,974,976,975,976,978,980,982,985,983,985,987,988,989,987,983,981,983,983,984,983,979,978,979,985,990,989,981,975,974,976,972,968,963,961,961,962,963,962,960,957,960,963,962,962,958,956,958,962,959,957,956,955,957,959,959,956,956,955,951,947,940,935,930,922,917,925,945,969,994,1030,1080,1132,1174,1202,1218,1228,1223,1198,1157,1101,1042,988,950,931,929,933,936,945,950,952,954,953,953,952,953,953,954,954,951,951,952,953,953,950,949,948,950,950,952,951,947,946,951,952,952,953,951,949,951,952,952,952,950,950,952,954,953,952,951,948,952,954,952,954,948,947,950,953,953,953,949,950,955,955,954,953,951,953,956,958,956,953,951,952,957,956,954,951,950,950,950,951,952,953,949,948,950,952,951,0
957,953,953,954,954,956,953,949,951,953,955,952,954,953,955,957,961,965,965,963,963,966,968,971,971,971,971,976,978,977,974,974,973,973,972,971,970,970,971,972,969,970,972,974,972,969,966,965,960,956,950,952,950,947,946,944,947,947,948,950,948,947,948,949,949,948,945,944,945,948,950,950,949,945,944,947,947,947,944,938,935,931,929,922,909,903,911,934,963,996,1036,1084,1134,1172,1186,1167,1108,1031,964,931,920,926,934,939,935,937,937,936,938,939,938,942,941,941,940,935,933,937,939,940,938,937,937,937,939,938,938,935,934,935,938,937,938,937,938,939,940,941,941,936,935,937,939,938,936,931,932,934,935,934,933,935,934,936,938,941,939,939,935,938,938,935,935,933,935,934,936,937,936,934,932,934,936,936,934,933,930,930,929,927,929,929,927,928,929,927,926,923,0
952,949,947,947,946,946,949,949,949,947,945,944,948,949,949,946,947,951,957,957,961,959,960,963,963,965,966,966,966,967,969,967,965,961,963,964,967,967,966,963,962,963,963,968,967,966,961,957,955,955,949,949,948,947,946,947,946,946,944,940,943,943,943,941,940,940,940,944,941,940,939,941,943,943,942,939,934,928,922,919,914,902,895,898,911,927,945,962,978,1005,1038,1084,1133,1169,1187,1186,1150,1078,996,943,921,917,927,937,938,938,937,940,939,941,940,936,935,938,937,939,938,936,935,938,938,936,936,935,933,937,937,939,939,937,934,938,940,940,939,935,936,937,939,938,937,937,938,942,940,941,940,936,938,940,940,941,938,936,937,939,939,939,942,939,938,939,943,941,941,940,938,940,940,939,938,937,935,935,936,936,934,932,931,933,934,935,931,931,930,928,932,934,0
950,951,951,952,950,950,950,950,952,952,950,951,954,955,956,957,956,961,964,967,967,966,964,964,967,969,972,972,971,970,971,973,972,971,968,965,969,968,970,966,967,969,974,979,973,967,963,960,956,956,951,949,944,944,946,946,948,947,945,944,943,945,946,947,943,942,944,944,945,945,943,944,945,946,943,940,937,933,927,924,923,920,917,913,907,908,918,941,967,1000,1040,1088,1139,1175,1185,1168,1118,1048,982,939,927,929,937,942,943,937,939,938,940,941,939,937,935,935,935,936,939,938,936,937,937,936,936,936,934,932,936,939,939,939,938,936,937,939,940,936,937,936,935,937,937,936,934,933,936,937,938,937,937,936,936,936,935,937,937,935,936,938,939,938,936,935,937,938,940,938,937,933,936,936,936,936,935,935,937,937,939,939,936,936,934,937,936,933,933,931,934,934,0
947,950,950,950,950,948,948,947,949,948,948,947,946,951,951,953,949,952,953,957,961,963,964,962,961,966,970,970,970,966,967,969,971,970,967,964,962,965,967,967,965,962,961,967,972,971,964,955,954,954,955,950,945,946,944,946,945,944,944,941,938,939,943,940,938,939,940,942,943,944,943,939,939,941,941,940,938,929,923,917,917,907,896,894,907,928,946,956,971,989,1016,1054,1099,1136,1165,1178,1169,1122,1052,978,928,911,916,928,934,936,934,934,934,935,938,938,934,932,931,932,933,934,934,933,932,934,935,934,933,931,930,933,935,933,933,933,933,937,937,939,935,936,934,934,933,934,933,931,932,932,935,935,932,930,931,933,937,936,934,933,931,931,931,934,935,935,935,935,938,938,937,932,934,936,939,936,933,932,929,930,933,933,930,927,927,930,930,930,928,926,926,929,0
943,942,940,940,941,944,943,943,940,943,941,944,946,945,945,945,946,948,951,955,954,955,957,956,956,955,955,957,961,966,969,969,967,964,965,964,962,963,963,962,962,960,965,965,965,962,958,957,956,951,949,944,943,944,941,941,939,939,938,943,944,944,940,939,938,941,941,938,937,938,939,940,939,939,938,939,939,939,938,935,929,919,916,917,910,903,900,913,940,967,998,1043,1095,1144,1179,1190,1161,1096,1018,955,925,917,918,926,929,928,931,930,931,933,931,928,928,934,933,932,930,929,932,934,935,931,930,931,935,935,935,934,933,931,934,934,935,933,931,931,931,935,935,934,931,930,931,933,933,932,933,932,932,935,935,935,934,932,936,937,938,936,934,934,936,937,938,936,933,932,937,936,937,936,935,933,932,936,935,933,932,932,934,933,934,932,931,929,931,930,931,929,0
956,953,956,958,958,955,955,955,958,963,965,967,969,970,971,975,975,974,972,972,973,977,978,977,978,978,979,981,981,977,974,973,973,977,976,976,973,971,976,983,988,982,976,971,969,967,964,959,956,956,954,956,955,955,954,954,956,958,958,958,955,954,957,957,961,957,956,955,956,958,959,956,957,955,956,958,957,953,947,939,932,931,926,919,910,910,927,948,979,1011,1046,1096,1152,1192,1216,1218,1182,1112,1029,967,939,932,937,945,951,953,950,950,950,949,948,949,951,949,946,947,948,948,952,950,948,946,950,952,952,949,947,946,947,949,951,948,946,948,949,951,951,949,948,947,950,951,953,952,949,946,949,952,953,949,948,950,952,952,952,951,949,950,951,952,951,951,949,950,949,951,951,951,950,946,949,951,950,950,949,950,951,951,952,952,948,949,953,954,954,951,949,949,0
967,964,964,966,967,969,967,966,965,968,968,970,970,974,975,979,981,983,983,981,982,985,988,989,988,987,986,988,991,992,988,988,984,985,987,986,986,987,984,985,985,982,984,986,988,993,988,982,977,975,973,972,970,970,966,963,962,964,969,966,966,965,964,961,963,964,962,964,962,964,963,966,964,963,961,964,963,959,952,941,934,933,926,918,923,938,963,988,1012,1040,1081,1121,1162,1197,1215,1223,1200,1141,1051,982,944,939,943,952,957,957,956,957,956,954,953,954,954,954,953,950,950,953,954,953,956,954,951,953,955,955,955,954,954,956,958,959,958,955,954,957,959,958,959,956,956,957,958,958,958,955,956,957,955,957,957,954,955,957,957,957,956,955,955,955,957,956,957,953,953,955,957,957,956,954,954,955,958,957,954,954,952,954,958,956,956,955,954,957,955,957,955,953,0
968,970,971,971,970,967,968,969,970,969,971,969,969,970,972,971,971,972,973,975,981,984,982,980,982,985,989,989,992,989,991,992,993,993,990,987,986,989,990,990,989,985,983,987,993,997,992,985,980,981,981,975,970,966,962,965,967,967,967,965,963,965,965,965,964,963,963,965,966,965,964,961,960,962,963,964,964,963,961,957,950,943,938,933,922,917,921,936,960,983,1014,1065,1122,1167,1190,1187,1148,1078,1004,953,933,933,944,953,954,955,953,951,950,953,956,955,954,953,951,952,951,952,951,951,950,950,953,953,953,952,951,956,956,955,954,951,951,954,956,954,954,950,952,953,954,955,953,950,950,952,953,953,955,952,952,953,955,956,956,952,953,953,954,954,954,952,954,956,957,956,953,951,952,951,953,953,954,952,949,951,953,950,949,949,948,949,948,951,950,946,943,944,0
963,964,965,966,964,967,965,965,965,965,965,963,962,964,966,966,966,964,964,970,975,976,974,974,974,979,982,985,986,986,986,986,985,987,987,982,984,984,987,984,981,978,976,982,989,989,981,975,971,971,970,966,964,964,959,961,963,966,967,967,967,969,970,968,965,962,958,960,963,964,961,961,959,961,960,958,958,959,959,960,957,951,944,938,929,923,921,934,954,982,1012,1058,1113,1167,1201,1209,1176,1107,1031,974,942,932,936,947,954,954,956,953,952,954,955,954,954,950,951,954,956,956,955,953,950,953,955,956,955,953,952,955,954,955,956,952,951,953,953,954,955,952,951,953,954,955,954,953,954,952,955,955,955,953,951,955,956,954,958,952,952,954,956,957,956,954,955,956,956,956,955,955,950,953,955,955,951,948,948,948,947,949,946,946,944,944,945,945,942,943,941,943,0
972,973,975,975,974,971,969,977,975,972,972,973,974,976,978,975,975,974,981,986,988,986,986,987,990,989,992,993,994,993,998,997,996,994,994,991,992,992,994,992,989,987,992,996,1001,996,988,984,983,984,977,974,974,971,971,971,974,973,972,972,973,974,974,973,972,971,972,972,972,972,969,967,970,971,971,969,969,968,968,971,964,956,947,941,938,930,934,948,977,1008,1048,1100,1158,1204,1230,1220,1175,1098,1015,958,942,948,960,967,966,965,962,962,962,964,964,964,962,960,962,962,964,962,961,961,961,962,963,961,962,961,960,963,963,964,963,959,962,966,964,963,962,960,961,964,965,966,963,961,962,962,965,963,962,960,963,963,963,963,963,961,963,962,964,963,963,963,963,963,963,961,960,960,963,965,964,963,961,960,962,962,964,962,960,962,961,963,964,962,960,960,960,961,0
980,982,981,980,978,981,982,983,981,982,980,977,983,981,983,983,982,985,990,993,991,991,990,993,999,998,998,1000,998,1000,1004,1004,1002,1000,996,997,998,1001,1000,995,995,996,1005,1008,1004,995,990,989,988,983,981,980,977,977,978,979,978,975,972,976,976,977,975,977,972,975,974,974,977,975,974,975,976,980,978,978,977,974,973,969,959,954,947,948,942,935,933,942,965,998,1031,1075,1130,1176,1206,1218,1195,1136,1057,992,955,949,958,968,970,969,967,969,970,972,970,968,965,968,968,969,966,965,965,966,968,969,967,967,966,968,968,970,968,965,964,966,970,969,970,967,965,969,970,972,971,969,968,968,969,973,970,970,968,968,970,970,970,967,967,967,971,969,968,966,965,968,967,969,970,970,968,969,969,971,970,968,965,967,969,970,967,967,965,966,967,968,967,966,962,963,964,965,0
978,977,976,975,974,976,980,981,980,980,978,981,984,985,987,988,987,987,992,993,993,995,993,997,999,1000,999,995,995,995,997,997,994,993,994,995,993,990,989,991,992,996,1000,1003,1002,996,989,988,988,988,984,979,975,973,975,974,971,968,969,972,975,975,973,969,967,971,971,973,973,969,967,967,968,971,966,965,964,967,966,963,956,950,946,943,931,929,932,949,970,997,1036,1084,1137,1176,1202,1201,1174,1112,1042,983,952,940,943,952,958,958,956,958,961,966,963,963,960,964,966,963,962,963,961,959,961,962,962,961,961,961,961,963,961,961,960,961,961,960,959,958,957,958,959,962,962,962,960,963,962,961,960,959,956,958,960,960,961,961,960,963,960,960,958,958,957,960,964,964,961,961,962,963,965,964,964,962,960,961,960,959,960,958,957,960,961,961,958,957,954,955,956,956,0
968,973,974,975,974,973,969,972,975,977,974,971,971,973,972,973,973,976,975,978,980,984,983,981,984,984,989,992,992,991,990,992,996,995,994,991,990,989,991,990,989,988,983,986,990,992,995,995,987,983,982,980,976,971,968,969,971,968,968,968,968,969,970,969,968,965,966,967,969,969,968,969,965,967,968,967,969,964,963,959,953,950,944,936,926,924,935,956,982,1006,1043,1094,1148,1192,1221,1224,1196,1134,1063,1005,966,947,938,935,938,941,945,954,956,957,959,960,961,959,959,960,961,962,961,959,957,961,963,963,961,960,960,960,962,960,964,962,960,960,963,963,961,962,961,962,965,964,965,963,960,963,964,964,964,962,960,964,963,966,965,963,958,961,962,965,962,961,960,964,962,964,965,961,960,962,963,963,964,964,963,964,963,964,964,964,960,959,961,963,962,957,954,955,0
978,979,979,980,977,977,975,977,979,979,980,978,977,980,982,986,986,988,987,992,994,994,995,994,993,997,1000,1001,1001,1001,997,998,998,999,995,996,995,996,996,996,998,1001,1002,1001,998,995,993,990,986,986,986,987,983,980,977,977,979,976,977,977,977,977,978,978,976,974,975,975,977,975,976,976,973,973,974,976,974,973,968,965,960,952,949,943,933,929,941,964,992,1025,1065,1122,1178,1221,1233,1215,1153,1068,995,955,947,955,964,968,972,969,970,970,968,969,969,970,966,966,965,965,965,968,968,966,966,965,967,965,968,966,966,968,970,971,969,969,967,967,970,969,969,967,967,970,968,968,967,968,965,967,969,969,968,967,966,966,968,969,969,969,966,969,971,969,971,969,966,968,971,970,970,968,968,969,970,971,970,967,967,969,968,969,968,969,966,967,970,968,968,968,966,966,0
977,978,981,980,979,980,978,978,981,980,980,981,980,983,987,990,993,992,992,992,994,996,998,997,999,1000,1001,1003,1001,1000,997,995,996,996,996,995,994,992,994,998,1004,1002,996,992,990,989,989,984,981,979,979,981,980,978,974,974,974,974,975,973,973,973,974,975,973,971,969,972,972,973,974,970,969,971,971,972,970,966,964,962,955,951,946,938,929,925,934,954,979,1005,1036,1082,1135,1180,1207,1209,1186,1129,1062,997,959,942,946,957,964,965,965,964,963,964,966,965,965,965,962,964,967,967,964,964,963,964,965,966,967,965,965,964,965,966,963,962,960,961,966,965,964,964,962,964,966,968,966,964,962,964,966,966,968,966,960,963,964,965,963,962,962,963,962,966,965,966,964,965,966,967,965,964,964,966,967,968,967,965,965,965,967,968,967,967,964,968,965,967,966,966,963,963,0
968,965,966,965,966,967,967,968,964,967,969,970,969,967,968,967,970,972,971,969,969,973,978,979,980,979,977,980,982,985,986,986,983,985,988,987,987,984,982,984,987,984,982,982,983,986,987,981,975,971,967,963,965,966,966,964,962,964,964,965,964,962,960,962,964,963,965,960,958,955,955,961,959,956,957,957,957,960,960,956,945,939,937,932,921,915,919,943,970,999,1038,1090,1139,1177,1194,1176,1116,1041,980,946,931,935,943,944,945,944,948,950,949,948,949,952,952,955,950,950,951,951,953,955,953,954,950,951,952,951,950,947,947,947,948,949,951,949,948,949,948,947,948,949,949,952,953,953,950,947,947,947,950,953,952,952,949,951,952,953,953,952,950,951,950,952,951,949,951,949,950,950,949,947,946,948,950,950,947,945,944,945,944,947,946,943,940,939,938,940,939,938,0
959,960,959,959,964,963,961,959,960,962,963,965,964,961,961,961,963,963,964,964,963,969,972,974,974,972,970,973,978,980,982,979,976,979,981,981,978,976,978,977,979,979,977,972,972,975,980,980,976,968,965,963,962,960,960,955,955,956,960,959,958,958,956,955,956,957,955,956,954,955,957,958,955,955,953,953,955,955,954,949,942,934,930,928,920,913,918,942,971,1006,1048,1098,1149,1190,1206,1186,1125,1038,968,934,930,937,946,949,948,949,949,950,951,949,947,946,949,949,950,947,946,949,948,951,949,947,945,947,951,954,951,953,950,951,952,952,952,950,948,949,949,949,952,949,947,949,951,950,952,950,949,948,948,950,950,950,948,948,949,950,950,949,947,949,950,952,951,950,946,948,950,950,947,947,943,946,947,947,947,944,942,942,944,942,944,941,940,941,943,944,943,942,0
964,965,967,967,967,967,964,966,967,969,965,966,963,966,967,966,968,963,962,969,974,977,979,979,977,979,981,985,985,983,985,986,987,986,987,982,980,982,981,982,981,980,978,982,988,993,995,990,984,978,978,975,977,972,969,968,968,970,967,966,961,963,963,962,964,962,960,961,959,962,960,958,956,959,959,960,959,958,956,956,950,942,937,931,926,918,924,940,971,1003,1045,1099,1160,1204,1222,1204,1138,1046,972,937,936,946,954,956,954,956,955,956,953,952,954,954,955,951,950,951,950,952,951,951,949,951,956,953,953,952,949,952,953,956,954,952,951,951,953,956,955,954,951,952,955,955,955,954,951,954,953,956,953,953,951,952,953,955,953,951,950,950,950,955,955,950,950,952,956,957,955,956,953,955,953,954,953,952,951,953,954,956,956,954,952,954,954,953,951,952,950,951,0
967,966,966,967,965,963,962,964,968,967,965,964,966,964,969,970,971,972,972,977,983,983,981,977,981,985,987,989,988,988,986,989,989,986,985,982,985,986,986,985,982,981,985,990,989,983,978,975,975,975,972,971,967,965,965,965,963,963,961,961,960,961,963,963,961,960,961,961,965,961,962,959,959,961,963,963,961,958,958,956,951,939,934,930,922,917,926,944,970,1001,1043,1098,1153,1190,1199,1176,1117,1039,974,941,936,942,951,956,956,954,955,951,953,952,956,958,955,952,952,955,955,952,953,950,953,954,957,957,955,953,956,956,959,957,953,952,952,955,955,957,955,952,955,957,957,958,954,951,954,955,959,957,955,951,953,953,954,955,955,955,957,958,960,958,959,956,958,958,960,959,955,955,955,955,959,956,957,955,957,957,956,959,956,954,953,955,957,957,955,953,953,954,0
964,968,964,962,960,961,963,964,962,964,963,966,967,972,973,974,973,975,976,978,980,979,980,982,984,986,985,983,978,982,984,983,981,981,979,979,979,982,982,984,984,980,980,978,976,973,970,968,968,967,964,962,960,962,961,960,962,960,958,958,959,961,960,960,957,955,957,960,957,957,954,956,958,959,956,958,953,955,955,951,946,939,935,927,918,915,922,938,962,988,1021,1066,1116,1161,1189,1201,1181,1127,1058,993,954,937,933,939,946,948,951,950,950,954,953,950,949,947,951,951,951,949,951,950,952,952,950,949,948,951,950,955,954,953,950,950,951,952,952,953,952,951,953,951,950,949,950,950,953,955,952,951,949,950,950,950,949,949,948,949,950,952,951,949,948,951,953,953,952,951,949,951,951,954,955,954,950,950,952,955,956,954,950,952,953,953,952,950,946,947,948,949,0
963,962,964,965,968,966,966,963,965,964,967,969,969,970,971,977,979,978,977,975,976,978,983,981,984,984,987,986,987,985,984,981,980,981,985,985,981,980,979,985,990,989,984,977,974,974,972,970,965,963,964,966,967,966,962,958,960,960,961,962,958,959,961,960,963,961,959,955,957,958,962,960,957,957,956,958,960,960,957,950,943,936,937,930,920,915,924,947,977,1006,1041,1087,1141,1182,1205,1209,1178,1112,1033,971,942,930,935,941,949,953,953,953,952,951,951,952,954,955,952,948,948,949,952,950,950,947,950,951,950,953,950,948,950,952,954,954,951,950,950,953,952,953,950,949,951,952,952,954,951,949,951,953,952,953,951,950,951,953,955,956,953,952,949,951,955,952,951,951,951,952,953,953,955,951,954,953,955,956,954,952,952,954,955,954,953,951,950,951,952,952,948,946,0
969,970,968,969,969,969,970,973,973,973,969,967,971,974,972,972,971,977,980,984,983,984,981,984,984,987,990,991,993,991,993,994,992,992,989,988,988,989,989,988,985,986,986,988,991,995,992,989,986,981,978,975,971,969,968,970,968,965,966,965,965,966,966,965,962,963,965,966,964,963,962,963,966,967,964,962,960,959,956,951,943,936,932,925,920,927,943,967,994,1026,1065,1122,1173,1209,1222,1214,1171,1097,1017,960,937,933,936,941,944,949,955,956,959,959,954,955,955,957,958,959,958,956,954,954,957,957,957,954,952,955,955,954,957,957,954,957,958,960,959,957,957,957,957,958,957,958,955,956,958,960,958,959,955,956,958,959,959,959,956,958,960,960,959,957,956,958,960,962,961,960,958,960,960,960,962,959,960,958,961,962,962,958,955,955,958,958,959,958,957,959,958,961,0
969,968,969,972,971,967,968,968,972,972,971,971,971,968,971,972,970,970,971,977,981,985,984,983,982,986,989,990,991,990,990,993,993,993,989,989,988,987,990,989,991,989,985,983,986,994,996,992,985,980,979,976,972,969,967,967,968,969,970,969,967,966,967,966,966,962,962,963,965,967,968,965,962,960,963,966,965,961,960,957,951,950,942,937,932,923,921,932,953,981,1015,1064,1122,1170,1199,1200,1164,1091,1015,964,944,940,945,952,957,959,959,961,958,957,958,958,959,957,954,956,956,958,959,955,954,955,957,959,957,955,952,955,955,958,957,956,953,956,955,958,958,956,954,953,954,957,955,954,952,953,956,955,955,955,952,954,955,958,958,955,955,955,955,959,958,956,952,954,955,958,958,957,955,954,956,957,955,952,950,952,952,958,955,951,950,952,950,951,951,948,948,948,0
960,960,956,956,958,956,957,954,952,955,956,958,959,958,956,955,957,959,960,956,959,963,966,970,969,968,967,968,973,977,975,977,975,976,976,976,975,974,972,974,974,974,970,970,971,976,977,976,971,964,959,958,955,957,957,951,948,952,953,955,953,952,949,952,952,954,953,951,949,950,952,954,952,947,944,948,951,953,954,948,941,934,929,929,923,912,908,922,948,977,1012,1057,1108,1159,1191,1195,1160,1087,1010,957,931,925,929,937,942,943,943,944,941,943,941,943,944,945,945,941,939,939,939,942,943,940,940,940,941,944,941,940,941,940,941,943,941,939,937,939,938,941,940,938,938,939,939,941,940,938,937,939,941,942,942,941,939,940,940,940,941,940,940,941,942,942,941,942,940,940,943,944,945,942,941,938,941,939,938,935,933,934,937,937,935,933,930,930,931,931,931,931,0
956,955,954,952,955,957,959,958,954,954,956,956,957,956,953,955,957,957,961,961,962,965,968,969,970,969,970,970,975,979,979,978,976,975,977,976,976,974,972,971,973,973,971,970,971,974,979,984,980,973,967,963,964,962,958,955,954,951,953,954,954,952,950,949,953,954,954,951,950,951,952,954,953,951,948,951,951,951,949,939,929,925,918,912,909,921,944,977,1011,1051,1103,1156,1193,1216,1237,1248,1239,1195,1114,1025,955,926,926,937,946,947,944,944,947,946,942,944,944,945,946,944,942,943,943,944,943,942,939,940,941,944,945,944,941,943,944,948,944,946,942,943,943,945,945,945,940,941,943,947,947,945,944,941,943,946,946,943,940,941,943,946,943,944,942,943,944,946,946,944,944,942,943,944,944,943,941,942,944,945,945,942,940,941,941,942,942,941,939,940,940,942,942,942,0
953,952,954,956,955,955,953,955,958,959,958,957,956,955,958,960,961,959,962,963,970,968,973,970,969,970,974,976,978,979,975,977,976,979,978,975,972,972,972,975,973,971,969,974,980,984,978,974,967,968,967,968,966,960,956,958,955,957,956,952,950,953,954,954,954,950,950,948,952,953,952,950,948,949,948,950,951,948,947,944,939,933,928,923,916,907,906,924,952,978,1008,1053,1113,1162,1195,1203,1171,1105,1021,954,924,921,930,939,943,946,945,945,943,944,944,944,943,943,941,944,942,945,944,943,940,941,943,945,944,942,940,940,945,945,946,942,941,943,944,945,946,944,941,943,945,944,945,944,941,942,943,946,944,944,943,942,945,945,946,946,944,943,947,945,947,944,943,944,946,946,947,945,943,945,945,948,947,948,945,943,946,947,947,944,943,944,945,948,948,945,944,944,0
954,953,955,954,957,954,954,954,956,956,957,956,955,956,960,963,966,964,964,966,966,969,968,970,970,974,978,979,981,978,977,975,977,975,976,974,973,973,973,973,971,968,968,969,975,978,979,978,971,969,968,965,961,957,951,951,950,952,953,952,950,952,954,955,953,951,950,950,953,954,954,951,949,951,952,953,953,950,944,939,934,928,925,918,907,907,919,943,967,994,1029,1083,1136,1175,1191,1179,1139,1072,1005,955,932,925,927,936,942,945,944,945,944,946,948,947,947,944,944,944,945,943,945,940,942,941,942,943,942,942,941,944,945,947,947,945,943,941,943,945,946,943,941,941,943,945,944,941,940,939,940,944,944,943,941,939,941,947,947,945,943,944,943,944,946,944,942,942,944,946,949,945,945,944,944,944,943,944,944,944,944,945,944,942,939,937,940,942,941,938,937,938,0
952,953,955,955,955,956,952,952,955,959,958,957,954,956,959,962,964,964,964,964,966,969,972,971,972,974,975,976,978,977,974,977,976,976,975,975,973,973,974,972,971,970,972,976,978,976,973,969,964,963,962,961,957,955,953,951,954,952,954,951,949,950,953,951,951,951,949,950,952,954,952,950,947,951,952,954,954,949,944,939,934,928,926,919,912,913,927,950,974,1001,1035,1084,1136,1176,1206,1216,1197,1152,1091,1032,987,958,938,922,921,925,931,936,942,943,944,946,946,947,947,946,946,950,948,947,946,946,948,947,948,946,945,945,946,947,948,948,944,946,949,947,947,946,945,946,948,948,949,948,945,948,949,950,949,948,945,947,947,949,948,948,945,946,946,948,948,947,946,949,950,950,951,948,945,947,947,947,949,948,946,949,949,949,949,949,942,944,946,947,946,945,941,941,0
965,964,964,960,962,963,966,963,963,962,963,965,968,970,971,973,974,976,977,978,978,978,981,982,987,987,985,984,982,982,983,983,979,978,981,980,982,982,982,984,987,987,983,976,974,969,967,968,966,966,963,960,960,962,961,961,958,957,956,956,958,957,956,954,955,955,958,958,956,955,954,956,957,955,948,939,933,929,929,923,914,902,901,903,912,921,933,951,974,1002,1035,1082,1135,1179,1206,1215,1193,1133,1051,978,938,929,938,948,949,950,949,950,952,951,949,949,947,950,952,949,949,949,947,950,950,949,950,947,948,949,952,953,947,947,948,950,949,948,949,949,949,948,951,952,949,948,950,949,952,952,953,950,949,953,953,955,952,950,949,950,948,952,950,948,949,951,953,954,952,950,950,951,955,953,952,950,953,952,954,952,950,950,951,952,952,950,951,947,950,951,951,953,0
961,963,960,958,960,960,956,960,961,960,959,961,961,964,968,969,969,968,975,977,976,974,976,977,981,983,985,984,982,982,981,983,983,979,976,975,975,978,979,980,977,974,974,977,982,986,985,980,976,975,971,966,960,958,961,961,959,956,955,956,956,960,958,957,957,955,956,958,958,955,954,952,956,956,957,955,953,951,948,943,936,930,926,917,911,914,930,954,979,1010,1059,1115,1160,1190,1196,1171,1116,1048,983,939,926,930,938,948,948,947,946,943,949,949,949,948,947,945,945,947,947,946,944,945,946,947,948,945,943,943,945,947,946,946,946,946,946,947,946,945,945,944,947,949,948,947,945,945,944,947,945,945,944,944,945,947,946,946,946,944,946,947,947,945,944,944,946,946,947,946,945,947,950,949,949,946,945,947,947,949,949,947,943,942,944,949,946,946,944,942,940,943,0
952,951,950,948,944,945,945,945,947,949,951,952,953,953,951,949,948,951,954,952,956,956,957,960,965,965,965,964,966,967,970,970,973,972,969,971,971,970,967,968,965,966,966,963,964,966,970,972,980,977,974,966,961,959,957,950,947,945,943,943,944,944,946,943,941,946,945,943,942,940,941,943,945,941,941,938,938,940,942,939,933,927,923,924,918,906,903,917,939,971,1007,1049,1102,1147,1178,1188,1156,1081,999,942,916,914,922,931,933,935,935,937,940,940,939,936,934,934,937,936,936,934,932,934,937,936,937,933,930,934,935,936,936,935,934,934,936,936,936,936,933,935,936,937,935,933,931,933,936,934,934,933,935,936,937,935,936,935,934,935,937,936,935,932,934,936,938,938,936,934,934,937,936,936,935,932,931,932,937,936,935,932,932,932,934,932,930,930,928,931,933,929,0
953,953,951,949,950,950,952,952,953,950,950,951,953,954,953,952,950,952,956,954,956,957,961,963,967,968,967,965,967,971,973,975,974,974,973,973,974,973,972,969,966,972,975,975,972,968,965,970,977,980,977,970,963,963,962,959,954,949,948,951,951,951,950,947,947,950,951,951,948,946,947,947,947,948,946,946,945,943,946,944,934,927,921,918,910,906,912,931,963,999,1045,1101,1159,1197,1215,1201,1148,1060,980,930,913,916,924,932,938,942,940,940,943,943,940,939,939,939,942,942,939,939,936,938,941,941,941,937,939,939,942,941,941,939,939,941,943,942,940,941,938,941,943,944,942,941,940,943,945,945,943,942,941,944,944,946,942,942,941,944,946,944,944,941,941,943,944,943,943,942,940,943,945,945,947,944,940,944,944,944,942,942,939,941,942,943,939,938,936,937,940,937,0
958,956,959,961,958,958,958,957,959,961,961,960,958,957,960,961,963,962,963,963,968,973,975,975,974,973,977,982,981,982,981,981,983,986,987,986,984,982,981,984,984,979,980,978,980,978,980,982,985,985,983,978,973,969,964,961,962,960,959,959,957,958,959,961,958,955,955,954,958,957,956,955,954,954,955,956,955,954,951,946,940,935,932,927,916,910,921,947,974,1005,1042,1096,1150,1189,1213,1216,1181,1113,1035,975,937,919,921,926,936,946,950,948,947,946,951,952,952,950,948,947,949,952,952,951,949,945,950,953,948,951,947,950,953,952,953,951,951,950,950,952,953,953,952,948,951,953,953,953,951,951,951,954,955,952,953,950,952,953,953,952,952,951,953,954,954,952,952,950,953,956,954,953,953,952,955,954,953,952,952,952,951,954,953,952,950,950,950,953,953,953,951,950,0
964,964,963,965,967,967,967,963,962,963,965,966,965,964,964,965,969,972,974,974,977,980,981,979,981,984,986,989,996,995,996,993,991,994,995,993,993,989,987,989,990,988,989,994,994,992,988,984,981,977,972,971,972,972,970,966,968,970,971,971,968,967,966,968,969,968,965,962,961,963,962,963,965,966,963,964,967,965,965,962,955,949,943,938,928,918,919,937,964,992,1027,1078,1137,1181,1203,1195,1148,1071,994,948,941,944,954,957,957,957,959,960,960,959,956,961,961,961,958,956,958,960,960,959,957,956,953,957,960,960,959,956,955,957,958,958,959,958,957,959,961,960,960,958,954,956,959,962,961,958,958,960,961,961,957,957,958,957,960,959,957,955,955,957,958,957,956,955,953,955,957,958,959,960,960,960,962,963,960,957,956,957,957,958,953,955,953,955,955,952,950,950,0
962,961,963,963,960,954,960,963,961,960,964,959,963,964,965,967,967,968,967,974,974,972,976,975,980,982,984,980,982,980,983,986,985,984,981,978,978,981,978,975,975,971,972,978,980,981,977,972,971,970,967,962,957,957,959,958,957,953,953,949,952,955,952,951,951,948,952,952,952,950,948,948,952,954,956,951,947,945,942,938,936,930,918,908,905,918,940,965,991,1027,1083,1136,1179,1207,1212,1187,1143,1090,1039,999,973,956,946,933,923,915,912,920,935,940,940,939,939,941,942,942,942,942,941,941,943,941,939,938,936,938,943,943,942,940,940,938,939,943,944,942,937,938,937,941,938,941,941,939,939,942,942,940,937,939,939,940,938,938,936,936,939,940,940,939,937,937,939,941,940,940,940,939,938,940,941,940,940,940,939,940,940,940,936,935,936,936,937,933,931,932,930,931,0
951,953,955,954,953,952,952,955,954,956,955,954,954,956,956,957,956,958,961,964,965,966,967,966,967,969,972,974,974,974,972,974,976,974,972,968,968,970,974,971,970,968,969,975,976,975,967,963,959,958,955,953,950,947,949,948,951,949,948,948,944,948,947,949,947,944,943,945,947,946,944,942,942,943,944,940,936,926,918,916,913,904,895,893,901,916,937,958,981,1006,1046,1095,1147,1185,1207,1209,1182,1117,1037,964,925,916,923,936,941,942,937,937,936,939,939,939,938,937,935,936,937,938,938,938,935,936,937,937,937,936,935,936,943,939,940,936,936,939,936,937,939,936,934,939,940,940,939,938,937,940,942,940,939,938,937,937,939,938,937,936,937,937,939,939,937,940,937,937,940,939,939,938,938,939,940,940,938,938,937,937,937,938,936,934,931,932,935,934,933,932,933,932,0
949,948,949,948,952,949,951,949,951,953,953,952,951,953,959,962,964,965,964,961,966,968,969,969,969,969,971,972,974,970,969,968,968,968,968,966,966,969,969,969,969,966,963,966,970,976,975,968,963,960,959,957,952,950,947,945,947,948,950,948,945,944,944,946,945,943,943,944,946,947,946,946,942,942,945,946,944,940,934,927,920,918,914,904,897,901,917,943,969,1001,1041,1095,1150,1185,1202,1194,1144,1070,992,941,917,913,916,927,936,937,936,934,936,934,935,935,934,934,933,933,934,935,937,937,933,935,938,939,940,938,935,935,935,938,937,936,935,935,937,937,935,934,936,934,937,937,935,937,937,936,936,939,940,938,937,934,935,936,936,937,937,935,936,936,938,939,937,936,938,939,939,939,934,935,939,939,939,937,936,935,938,938,940,938,936,934,935,936,936,936,933,932,0
950,952,952,952,948,950,951,954,954,952,952,952,953,956,957,958,959,962,964,966,967,966,965,965,970,973,975,975,974,970,973,974,973,970,970,969,970,970,969,968,969,975,978,976,971,963,962,959,959,957,955,951,951,950,950,949,950,948,948,948,948,951,948,946,946,944,946,948,948,948,942,945,945,943,945,944,939,939,938,932,926,918,915,906,898,901,915,938,963,993,1040,1093,1140,1169,1176,1157,1103,1030,967,925,912,919,930,936,940,936,935,935,937,938,939,937,937,937,940,939,941,940,938,936,936,936,935,938,936,938,941,941,940,937,937,935,936,937,939,938,935,936,939,939,942,941,940,935,939,942,941,940,939,939,940,941,942,939,939,939,940,942,944,940,940,936,939,939,943,943,941,941,945,942,941,939,940,939,943,943,944,942,941,941,940,944,941,939,937,937,937,938,0
947,946,948,949,949,946,946,947,950,949,948,947,950,952,955,956,954,954,955,957,958,960,960,961,960,961,965,966,966,967,967,971,970,967,965,964,962,965,967,964,963,962,964,968,969,966,956,952,951,947,946,945,944,939,939,941,943,944,943,945,942,942,943,943,939,940,939,941,943,943,941,939,939,938,939,935,926,919,917,909,901,893,890,894,901,911,924,938,953,966,990,1033,1085,1139,1171,1180,1152,1088,1015,960,927,916,917,926,931,934,935,936,936,939,938,934,934,931,933,932,933,932,932,930,931,933,937,937,935,935,933,932,935,936,936,933,932,934,935,932,930,932,930,932,934,935,935,934,931,933,935,937,934,934,932,937,936,936,937,934,932,935,937,937,935,933,932,932,934,933,932,931,931,933,934,932,933,929,929,931,931,931,929,927,925,926,927,926,926,924,924,923,0
949,947,947,948,950,949,949,947,947,949,949,950,948,946,946,948,952,954,954,953,955,959,962,963,961,962,964,968,972,972,972,972,971,971,972,973,969,968,967,968,966,966,967,969,973,978,979,974,968,963,958,959,958,956,952,947,945,947,947,945,947,944,945,945,946,944,942,940,942,943,943,943,940,939,938,940,942,943,939,935,927,919,917,910,902,898,908,931,963,994,1036,1086,1143,1186,1203,1183,1126,1044,967,924,914,923,930,936,935,939,938,938,938,936,937,938,937,940,941,939,936,936,937,940,938,936,934,937,936,938,934,933,935,936,938,938,938,937,937,937,942,940,938,936,935,938,938,940,939,938,937,938,939,940,941,937,935,938,940,939,940,938,937,939,941,941,939,937,938,940,941,942,940,940,936,941,938,939,939,936,938,937,939,939,936,934,934,936,937,938,937,935,0
960,958,956,956,954,956,959,957,958,956,958,959,960,962,958,959,957,960,963,967,970,966,969,972,975,975,974,971,973,975,976,979,978,979,979,983,984,983,983,979,977,977,978,979,977,975,974,981,986,986,978,972,966,965,965,963,960,957,954,957,960,961,960,956,956,957,960,959,957,956,955,957,957,958,957,954,951,951,949,944,932,926,922,914,912,922,943,969,999,1036,1082,1134,1177,1206,1223,1231,1218,1167,1083,1000,947,928,931,942,950,949,949,951,952,953,953,950,947,950,953,954,950,949,947,949,952,951,951,949,947,950,953,953,950,950,950,952,954,952,951,950,951,952,954,954,955,949,950,954,957,955,953,955,955,956,955,955,954,954,953,955,956,955,955,953,950,953,954,956,954,954,954,951,956,955,957,955,955,957,957,958,955,954,954,954,954,956,955,952,951,952,954,953,0
965,967,968,968,969,965,967,968,968,967,968,965,969,970,974,975,976,978,979,983,985,985,982,986,990,991,990,991,989,988,988,988,988,985,985,981,982,985,987,989,985,982,983,986,991,994,991,986,980,980,976,970,967,966,964,967,966,965,964,962,963,963,964,962,961,961,961,962,963,960,959,959,962,962,964,960,957,953,953,947,943,937,927,917,913,921,942,964,990,1028,1077,1130,1174,1203,1215,1201,1167,1114,1054,999,956,936,928,929,939,946,949,948,952,951,953,951,951,952,953,954,955,954,951,952,954,955,953,955,954,953,955,957,954,950,950,949,952,955,954,954,953,950,952,954,956,953,952,950,953,954,955,953,953,952,952,954,953,953,951,949,953,955,955,953,952,953,955,956,955,955,952,952,954,956,954,953,950,951,956,954,955,954,953,953,955,954,954,953,951,949,951,952,0
964,962,960,963,965,965,963,962,960,963,964,967,965,968,968,973,975,976,977,976,976,977,981,983,980,979,978,981,983,982,982,983,981,980,982,984,980,976,973,977,982,984,980,973,967,967,966,965,961,960,959,957,958,960,956,957,953,955,957,957,956,952,953,954,956,955,955,954,954,956,956,956,958,956,952,955,957,955,953,946,938,934,933,927,916,915,924,949,978,1010,1051,1099,1149,1187,1209,1201,1150,1072,996,950,933,929,936,944,946,949,948,951,949,948,949,949,947,949,950,947,946,945,948,950,947,946,945,947,949,949,947,946,944,945,948,947,945,946,947,947,948,949,948,950,947,948,949,951,949,945,949,947,949,949,948,949,947,949,950,950,948,947,945,949,949,949,949,949,944,950,950,951,951,947,948,950,952,950,948,949,947,947,945,948,944,944,942,943,943,944,943,940,0
964,964,962,961,963,965,965,965,963,961,964,965,967,965,965,964,967,973,975,975,975,974,977,982,983,983,983,983,983,986,986,986,985,983,983,983,984,985,984,978,979,984,987,991,988,980,978,976,975,973,969,963,965,966,966,965,961,959,961,963,962,963,960,959,959,959,962,959,959,956,957,960,959,958,959,957,957,956,956,951,939,935,930,927,921,917,923,946,977,1011,1054,1109,1163,1204,1226,1219,1171,1083,1000,944,929,937,951,954,953,951,952,952,952,954,954,951,952,952,954,952,950,946,949,949,950,950,949,946,949,950,950,949,950,947,948,949,952,951,948,949,950,951,952,951,950,948,950,952,950,949,949,950,951,951,953,950,948,947,948,952,954,953,951,950,954,955,958,957,953,954,953,956,955,957,955,951,953,955,955,955,953,950,954,953,954,953,952,951,951,953,952,954,0
963,967,965,964,965,963,965,966,966,966,964,961,964,967,967,968,968,968,971,978,977,976,977,977,978,980,983,984,983,985,987,989,988,986,985,980,981,982,985,985,981,979,980,983,989,990,985,977,976,976,976,973,971,965,966,966,965,963,961,960,963,965,966,965,960,960,962,961,961,962,961,957,959,961,960,959,956,954,953,954,951,941,935,930,926,916,915,926,948,975,1014,1059,1117,1170,1199,1199,1165,1097,1013,952,929,930,941,949,953,951,952,951,953,955,954,956,953,951,952,951,953,950,950,947,949,950,953,951,952,948,948,952,954,952,950,949,949,951,950,951,951,950,951,952,951,949,949,947,950,952,953,952,949,948,947,948,953,952,952,950,950,955,956,955,953,953,954,955,955,955,954,949,953,952,955,954,950,950,952,953,955,955,953,950,952,952,952,951,950,948,948,950,0
957,959,962,964,964,961,965,963,962,963,965,966,961,960,961,962,964,965,964,967,969,972,973,974,971,970,974,980,982,987,984,982,982,983,985,984,979,975,978,981,979,975,976,980,982,982,978,973,968,964,963,959,959,959,957,957,958,958,959,958,956,954,956,957,958,958,958,957,956,958,958,957,956,954,954,955,955,952,951,948,943,938,936,929,920,911,919,937,970,1001,1046,1099,1156,1196,1208,1189,1126,1046,978,942,932,934,941,944,947,949,950,950,948,949,949,950,949,949,949,947,949,951,949,952,948,943,945,948,950,948,948,946,949,951,950,950,950,948,948,949,948,950,948,948,949,950,950,950,950,946,947,947,947,948,946,944,947,948,948,950,948,946,947,947,951,948,948,946,946,949,951,950,949,949,953,950,950,948,944,943,942,944,944,943,939,937,938,936,938,937,935,935,0
962,966,967,967,968,967,967,967,968,969,968,967,966,966,968,971,972,972,972,977,980,981,981,982,981,982,985,985,988,991,987,989,989,992,988,985,982,984,985,988,986,984,979,983,989,989,989,981,975,974,973,970,966,964,961,962,963,966,965,961,961,963,962,961,963,960,960,960,961,961,962,961,959,960,961,962,964,960,957,956,953,946,938,932,925,916,918,932,959,992,1027,1076,1135,1187,1219,1222,1184,1107,1021,960,934,935,946,953,956,956,956,955,954,955,955,954,953,954,952,951,953,954,953,954,951,950,951,953,954,953,951,951,954,955,955,954,952,955,955,954,956,955,953,956,954,956,955,956,954,953,957,958,955,954,953,954,956,958,956,956,950,954,956,959,956,956,954,955,955,958,956,955,953,954,955,956,955,953,952,954,953,954,951,952,949,950,952,953,950,949,947,950,0
967,964,962,963,965,965,966,962,966,968,968,968,965,964,966,967,972,971,973,976,979,981,981,980,981,982,983,988,990,992,988,985,987,985,986,984,984,985,985,983,981,982,983,985,991,992,987,981,975,972,970,967,968,965,963,960,962,961,963,963,961,959,959,963,962,960,959,958,958,960,962,958,960,957,957,957,958,954,946,937,932,929,922,912,908,917,936,960,982,1000,1030,1069,1124,1174,1204,1218,1208,1157,1082,1011,962,935,930,936,943,952,955,953,950,950,953,951,952,952,947,945,947,948,949,950,949,948,948,949,951,951,949,947,949,951,953,950,949,948,950,949,953,954,953,950,950,952,952,953,950,950,952,952,954,953,949,948,950,951,952,951,952,949,949,951,952,951,951,950,951,951,952,953,952,950,952,954,954,953,952,948,950,953,953,954,950,947,949,950,951,950,947,947,0
961,959,959,958,959,959,958,957,957,955,959,960,964,963,962,961,964,969,974,973,974,971,971,975,978,981,982,979,984,983,983,982,977,976,977,977,978,977,977,976,975,973,975,975,975,979,977,974,970,967,961,957,955,957,956,955,956,955,956,957,957,954,952,951,953,951,952,952,949,947,948,951,950,951,948,947,948,944,940,932,926,918,908,902,905,915,935,952,972,999,1036,1078,1122,1154,1184,1198,1189,1145,1080,1010,960,932,920,922,934,938,941,941,940,940,940,939,941,942,944,942,938,936,939,940,942,943,940,939,938,939,942,939,942,940,941,942,942,944,941,938,941,941,941,941,943,936,938,937,940,941,938,938,939,942,943,944,941,938,938,940,941,940,938,936,938,938,941,941,940,937,939,942,943,942,940,938,940,942,941,942,940,937,938,937,939,936,934,931,935,936,937,937,0
947,949,951,951,953,949,950,949,951,957,953,952,951,955,959,962,962,962,959,963,966,967,968,970,966,970,971,973,975,973,971,971,971,970,970,966,968,969,971,971,967,964,965,966,972,974,973,967,959,956,956,954,952,951,944,946,945,948,948,947,943,945,947,944,946,942,942,943,945,946,944,943,940,943,942,944,941,936,930,924,921,919,908,897,897,911,937,964,989,1019,1052,1097,1144,1180,1205,1207,1174,1107,1026,966,930,914,916,926,936,938,937,936,932,934,937,940,936,937,935,936,936,938,937,934,934,936,936,938,935,936,935,936,937,937,937,935,932,933,935,938,938,938,936,936,937,938,939,935,934,936,937,937,938,936,935,938,937,941,938,936,934,937,937,939,939,938,934,934,936,938,938,936,935,936,936,938,940,937,934,936,937,938,938,933,930,932,934,935,933,930,926,928,0
953,949,952,952,954,956,955,950,953,955,957,957,958,957,963,966,970,970,970,968,970,972,976,975,975,974,976,979,978,978,975,974,971,972,974,973,972,971,970,971,971,972,973,977,978,975,968,966,963,956,955,954,954,953,951,950,951,951,953,952,949,948,949,949,948,948,949,946,946,949,948,948,949,946,946,949,946,941,931,923,918,915,906,901,906,923,949,975,1003,1037,1080,1130,1174,1204,1225,1239,1240,1212,1148,1063,984,936,922,927,936,945,946,945,942,940,940,943,946,944,941,940,938,940,941,940,940,939,939,941,941,941,938,937,939,941,942,941,940,937,940,940,942,942,938,939,939,942,943,942,940,938,940,940,942,944,941,941,941,943,946,945,942,942,941,943,943,942,941,940,943,944,942,944,942,941,942,943,945,947,942,940,943,945,947,945,943,942,945,944,943,943,942,941,0
952,952,953,955,956,952,950,953,957,957,956,956,952,955,958,959,961,964,963,967,969,970,972,970,969,974,978,978,979,978,976,976,977,978,977,972,971,969,971,978,978,971,968,972,977,982,983,979,971,968,967,965,963,959,952,951,954,954,951,952,951,949,951,953,952,947,949,948,949,952,951,951,949,947,950,949,950,944,935,928,924,923,918,906,896,900,919,941,971,998,1036,1092,1150,1189,1208,1207,1175,1110,1035,971,932,915,918,930,940,943,943,940,938,938,940,943,942,939,938,938,938,941,941,941,938,940,942,943,942,940,939,940,941,944,942,943,940,943,941,945,945,944,941,941,943,943,945,942,939,942,944,945,946,946,943,944,945,946,946,943,943,943,943,944,944,941,939,938,942,945,948,946,942,942,945,944,945,944,941,942,943,944,945,940,941,942,941,945,941,941,938,938,0
951,951,948,946,946,948,948,952,949,947,947,946,948,948,946,946,948,952,957,959,960,959,958,960,962,963,964,965,964,968,970,973,971,968,969,969,971,971,966,966,967,969,968,966,961,963,968,971,970,966,957,952,948,946,947,947,946,941,942,941,944,945,943,940,940,942,943,943,942,940,942,942,944,944,941,937,935,936,932,923,919,912,904,894,901,916,939,958,984,1015,1060,1111,1155,1183,1202,1198,1161,1089,1014,956,924,913,918,928,933,931,932,932,935,936,936,933,932,934,934,934,934,934,933,934,933,935,932,928,930,931,935,933,935,933,933,933,933,936,932,929,931,932,933,932,931,931,931,931,934,934,931,927,929,931,933,936,934,932,931,933,934,934,933,930,931,934,937,937,934,928,931,930,932,931,930,930,928,928,929,928,926,924,925,924,927,926,922,923,920,921,922,921,0
951,948,947,946,946,948,950,950,948,946,945,947,948,950,947,947,948,950,953,954,956,958,959,962,962,966,965,962,964,967,972,973,973,970,973,972,975,973,969,966,968,970,970,968,966,962,968,974,974,970,962,957,954,953,951,950,948,943,945,947,949,951,949,947,947,949,950,949,948,945,948,949,949,949,946,943,945,947,949,947,942,933,925,923,923,914,906,911,934,965,1000,1051,1108,1164,1202,1211,1173,1092,1001,938,918,923,935,944,943,942,941,940,944,943,943,939,942,943,940,943,941,941,941,942,944,943,942,941,943,942,944,945,943,940,942,943,944,943,943,942,941,945,945,945,943,941,941,944,944,944,943,941,938,941,943,943,942,940,940,940,944,945,944,942,941,941,946,945,945,943,945,946,947,944,944,942,940,938,941,941,940,937,936,936,938,939,936,933,933,934,937,936,0
963,962,961,960,961,959,963,964,962,961,961,963,963,965,963,962,962,965,968,973,974,973,974,977,979,979,980,980,984,986,988,988,986,985,981,982,985,981,982,982,982,980,982,981,980,983,989,992,989,982,976,974,969,968,966,964,962,958,961,960,963,963,961,960,957,960,962,959,957,954,956,957,957,957,957,956,954,954,953,946,935,926,924,917,915,924,946,977,1005,1037,1080,1135,1185,1219,1241,1249,1226,1157,1059,977,935,929,945,952,953,952,949,950,954,954,951,950,949,950,950,951,949,948,949,949,953,951,950,949,949,951,952,953,950,948,949,952,952,953,951,951,948,952,951,952,952,952,951,952,954,952,954,951,950,952,954,951,950,949,949,949,952,950,951,951,951,950,954,953,952,950,950,951,954,951,951,947,949,950,952,951,950,948,947,949,950,949,949,947,948,948,952,951,0
963,959,962,961,963,964,965,962,962,962,965,965,966,964,968,970,975,978,978,976,976,977,982,985,982,982,983,984,987,990,986,984,984,981,983,984,981,982,980,975,976,983,986,989,982,977,973,972,968,964,960,961,960,963,962,961,958,958,962,963,964,960,957,958,959,958,962,960,956,957,959,959,959,958,952,946,940,936,932,927,916,906,907,917,932,949,958,967,981,1000,1027,1064,1114,1163,1198,1205,1172,1105,1024,959,933,936,946,951,950,952,952,957,954,952,952,953,952,953,951,953,952,950,952,955,953,952,952,951,951,954,952,950,948,950,952,953,951,952,950,949,953,955,954,953,950,951,954,955,955,954,951,950,951,954,951,949,950,948,951,954,951,951,953,949,949,952,951,951,951,951,951,953,951,950,947,949,950,950,951,950,948,948,946,950,949,947,947,944,946,949,947,946,0
953,952,951,952,954,956,956,954,953,952,953,958,959,959,960,961,965,969,968,966,964,967,971,973,973,975,975,974,976,979,979,977,974,972,971,975,972,968,970,970,975,979,975,969,964,957,955,960,957,956,953,951,952,953,951,951,950,949,953,954,955,954,954,952,951,952,949,950,945,946,949,951,950,949,948,947,948,950,946,941,931,927,926,917,912,911,924,948,976,1010,1052,1103,1150,1187,1204,1196,1152,1079,1008,956,931,924,926,932,935,936,934,940,941,942,943,940,945,945,946,943,939,938,942,942,939,939,937,938,939,943,943,942,943,940,941,943,942,939,939,940,941,943,941,942,941,939,941,943,941,939,939,938,942,944,944,943,943,943,944,946,945,943,940,939,940,942,942,943,941,941,942,943,944,943,941,939,942,941,943,941,939,939,940,942,942,938,935,935,937,937,935,933,0
956,959,961,958,962,963,960,960,960,962,965,967,968,969,971,975,976,977,976,975,975,977,981,980,982,980,981,985,989,988,983,981,983,983,985,982,982,979,976,978,980,983,982,984,982,977,973,969,966,961,960,964,962,960,957,956,959,960,962,962,958,958,956,958,961,960,958,957,955,959,959,960,958,957,957,956,958,955,949,940,933,931,929,921,912,914,926,954,986,1021,1061,1115,1168,1210,1231,1222,1178,1104,1019,961,935,929,933,940,947,952,954,952,950,950,947,948,952,952,950,948,949,950,950,950,948,948,947,950,953,952,951,951,952,952,954,953,952,950,950,953,955,955,951,953,951,953,954,953,954,952,951,954,953,956,953,950,953,955,956,956,955,955,955,956,956,954,954,953,953,954,955,955,953,954,951,954,955,955,954,952,952,952,954,955,951,950,949,951,953,951,949,949,0
964,966,969,969,970,966,967,966,970,969,970,968,971,968,968,967,967,970,970,971,974,975,981,981,983,983,982,984,988,988,988,989,992,992,993,990,989,985,987,987,987,988,982,984,987,993,994,991,983,978,978,975,972,970,967,966,967,967,969,966,964,963,965,964,963,961,961,960,960,963,962,963,960,961,962,962,962,960,956,953,945,939,936,932,923,915,920,940,970,1002,1039,1090,1153,1202,1224,1219,1173,1088,1000,948,934,940,949,954,958,957,954,957,956,955,955,954,957,954,951,950,951,953,956,953,951,950,952,954,954,952,952,951,955,952,953,954,952,954,956,957,958,953,954,953,956,957,957,954,954,954,956,956,958,954,954,955,957,957,958,957,955,953,957,959,959,957,954,954,956,958,956,955,956,953,955,958,956,957,955,954,957,958,957,956,954,953,954,957,955,955,953,950,0
966,964,966,962,965,967,969,965,965,965,965,968,970,972,974,974,979,979,981,981,978,976,978,980,980,979,978,980,982,988,989,987,985,984,984,984,984,982,981,980,983,981,981,984,987,990,987,981,975,973,969,967,966,966,962,962,957,955,958,959,959,958,959,957,957,959,958,956,955,953,957,957,958,959,956,957,958,955,953,946,939,932,929,922,912,908,918,942,967,998,1039,1093,1142,1179,1203,1197,1152,1082,1015,960,932,927,931,936,941,945,948,948,948,951,948,949,950,951,950,946,945,944,948,949,949,951,946,948,949,950,951,948,947,946,948,949,950,950,949,948,949,950,948,950,946,948,949,953,952,950,947,946,946,947,948,946,949,949,950,949,946,950,946,947,948,948,949,949,948,946,947,951,951,950,948,950,950,953,952,949,947,947,947,948,948,948,945,945,945,947,947,944,0
955,955,955,956,957,957,960,958,956,955,954,958,958,960,959,957,958,959,961,962,961,963,965,966,968,972,971,968,973,979,981,980,978,978,977,977,979,976,974,970,976,978,977,974,977,976,978,975,973,970,966,960,955,955,957,958,957,956,954,956,959,958,955,953,949,951,954,955,950,949,950,953,953,951,952,950,948,949,951,951,948,939,930,929,923,915,913,923,951,989,1028,1082,1139,1186,1209,1196,1143,1061,986,940,926,929,936,944,946,946,944,945,947,948,948,945,943,944,947,947,945,946,946,946,948,947,945,944,944,945,946,943,944,942,941,945,945,948,946,946,945,947,947,946,945,943,943,945,947,946,947,946,944,946,946,946,945,944,945,945,947,948,946,944,946,947,947,946,945,945,944,949,949,950,946,943,942,941,944,943,941,939,937,937,937,939,937,936,935,935,937,937,0
966,967,967,965,964,964,966,966,967,963,964,962,964,967,969,965,966,966,968,969,970,969,972,972,976,981,983,981,982,982,985,990,991,990,989,987,986,990,987,986,980,982,985,987,984,984,988,991,993,989,983,977,975,971,967,969,967,966,962,961,965,965,965,965,963,961,962,963,965,963,962,957,959,964,964,962,960,959,961,961,958,947,936,931,927,920,919,932,962,998,1041,1096,1155,1203,1230,1230,1187,1107,1013,947,929,938,955,959,959,954,952,952,955,954,953,952,952,951,953,953,953,949,949,950,952,953,954,954,952,950,953,952,951,951,950,950,952,952,954,954,951,952,951,954,955,954,953,952,953,956,954,953,955,953,954,956,956,955,955,953,954,955,955,956,954,952,953,954,956,956,955,954,955,956,957,956,952,953,954,954,955,953,953,951,952,953,954,952,950,949,954,953,0
964,961,964,966,967,965,965,965,964,967,965,964,963,962,964,967,968,969,971,971,974,978,980,977,980,979,983,986,987,988,988,989,991,990,989,988,986,983,984,983,984,986,983,979,981,986,991,992,983,977,974,973,969,966,964,962,962,961,963,962,961,959,959,962,962,962,959,956,957,958,957,956,956,954,957,959,959,958,956,953,948,941,935,929,919,911,915,937,967,998,1034,1086,1144,1193,1218,1213,1165,1076,991,940,930,938,949,950,953,954,954,954,951,950,949,951,951,952,950,949,951,951,951,951,949,948,950,950,952,952,951,950,953,953,954,955,950,949,953,952,951,952,952,951,953,955,952,952,952,950,953,955,956,952,953,950,951,954,955,954,954,951,954,955,958,953,953,953,957,956,957,958,954,953,953,954,956,955,955,953,955,954,957,954,953,950,954,954,954,954,950,951,0
965,961,958,961,964,965,964,962,961,963,964,964,964,965,963,967,969,975,974,973,972,975,975,976,975,978,975,978,980,982,984,985,983,984,983,983,983,980,979,979,981,981,978,974,976,981,985,982,975,969,966,962,962,960,958,956,956,957,961,958,959,955,953,953,955,956,954,954,953,954,957,957,953,952,950,951,955,954,945,937,932,928,921,912,912,924,944,970,995,1033,1075,1123,1158,1187,1209,1224,1216,1179,1111,1031,973,943,929,933,937,945,948,948,947,947,943,947,948,950,949,949,946,946,946,944,946,945,945,946,946,943,942,943,944,946,947,949,950,945,941,945,945,946,945,945,944,945,947,949,948,946,947,947,947,946,946,943,942,942,942,945,946,942,944,943,946,947,947,944,945,946,949,948,945,943,943,944,946,946,943,942,941,942,944,942,941,939,935,937,941,941,941,938,0
951,956,956,958,957,955,952,954,954,953,954,954,954,957,957,961,962,962,964,966,967,968,969,971,970,972,976,979,978,977,976,975,975,974,972,975,970,970,970,970,973,975,975,975,972,969,967,958,953,952,952,952,952,949,947,949,951,952,951,950,948,948,950,951,951,950,949,950,950,951,950,947,947,949,951,951,950,948,941,936,932,928,924,916,906,912,927,951,982,1011,1053,1113,1163,1198,1212,1194,1138,1064,995,950,928,922,918,928,935,940,941,939,937,941,943,944,942,942,939,939,942,944,941,940,939,939,941,941,942,939,938,940,944,944,945,941,941,940,942,945,942,940,939,941,943,942,942,942,939,943,945,940,942,943,941,944,943,945,942,941,941,942,943,943,942,942,943,944,945,947,947,945,943,943,944,945,946,942,941,940,943,943,943,942,938,940,938,942,939,936,934,934,0
959,956,956,960,962,960,959,957,959,960,961,963,964,963,965,970,972,972,974,971,970,974,976,978,978,979,980,981,980,982,979,973,978,977,976,976,974,973,977,983,986,979,975,969,966,965,963,960,957,956,954,955,957,957,955,954,954,956,956,957,956,951,953,956,958,956,952,952,954,954,956,955,954,951,953,953,955,952,946,936,929,925,922,914,907,909,926,952,982,1015,1052,1105,1163,1204,1221,1209,1160,1080,997,944,930,933,939,942,947,947,947,947,947,944,946,945,947,946,945,943,944,946,947,946,944,943,945,944,946,946,946,943,945,947,948,948,947,945,945,944,949,947,947,944,945,946,949,949,948,945,945,948,950,950,947,945,946,948,948,948,947,946,949,949,949,951,949,945,946,948,949,949,948,944,947,949,949,950,949,947,946,949,952,952,949,945,944,948,951,949,947,946,0
960,959,958,959,959,962,961,959,957,957,959,960,961,960,957,964,967,973,975,974,971,974,977,979,977,979,980,983,983,984,983,981,978,977,977,980,979,976,974,975,979,986,986,980,973,970,969,968,964,962,957,960,962,961,960,955,954,956,957,959,956,957,954,954,956,957,954,955,952,953,953,956,954,953,952,954,953,956,952,947,936,931,929,923,911,910,919,942,970,1000,1041,1091,1143,1186,1202,1188,1137,1058,984,936,924,932,942,946,944,943,944,948,951,950,947,946,948,949,949,947,947,947,948,949,949,946,944,945,947,948,947,946,944,947,947,947,949,948,945,946,949,950,950,949,948,948,950,952,952,949,947,948,950,950,949,946,947,947,950,951,951,950,947,948,949,952,950,948,947,947,951,953,952,952,949,945,950,953,953,951,950,950,951,951,953,949,946,950,950,951,949,949,0
953,953,956,957,959,956,952,952,956,955,957,955,955,954,955,959,959,957,957,960,963,966,968,967,965,965,967,974,975,976,973,976,978,979,977,976,972,972,974,976,975,972,969,972,976,979,976,967,962,961,961,957,955,955,950,950,952,956,957,956,952,952,952,952,954,952,949,950,950,953,951,949,947,948,950,951,953,949,945,944,942,937,930,927,919,911,906,914,939,963,994,1040,1097,1153,1190,1195,1160,1090,1014,958,928,921,927,938,943,944,947,948,944,944,945,945,944,944,941,939,939,944,941,941,938,939,940,943,944,940,937,940,943,945,946,944,942,939,943,944,945,944,939,942,941,943,944,945,939,941,942,943,943,939,938,941,943,946,946,945,943,942,945,943,942,944,941,941,942,945,947,947,943,943,943,946,944,940,939,936,937,936,936,935,931,933,933,934,936,935,933,932,0
952,954,956,956,954,954,953,954,956,956,952,952,955,957,958,958,958,957,960,963,967,969,965,964,965,970,972,974,974,973,975,978,979,977,974,970,974,973,974,977,975,971,971,975,982,981,974,966,963,962,962,958,957,952,952,953,954,954,953,952,951,954,954,953,953,951,949,952,952,952,954,951,950,954,952,955,954,951,949,949,946,939,932,926,921,913,913,929,953,982,1018,1070,1128,1177,1207,1208,1176,1110,1033,970,939,926,932,941,947,950,947,947,948,950,951,951,948,946,948,950,948,951,950,946,948,946,948,950,949,948,950,949,951,950,948,946,945,949,951,949,950,947,946,948,950,950,949,948,950,952,952,951,951,948,949,950,952,951,948,947,948,949,950,949,947,947,947,948,949,949,947,946,944,948,951,951,948,945,944,949,949,949,946,945,944,942,947,944,943,941,940,943,0
965,965,964,964,963,963,968,968,969,965,962,964,964,966,967,965,964,964,964,968,968,970,969,973,977,979,980,979,978,980,984,989,987,988,986,985,988,987,985,985,983,983,983,984,983,985,989,988,983,980,976,973,968,966,965,965,963,962,960,962,963,964,963,962,959,959,960,961,962,962,962,959,959,960,959,959,958,958,960,960,954,944,933,929,927,920,920,936,964,1000,1041,1095,1155,1202,1223,1211,1158,1076,997,948,933,939,949,958,957,955,952,952,953,954,956,954,951,952,953,954,954,954,951,952,954,956,955,952,948,950,954,955,956,954,952,952,955,956,955,954,951,953,954,956,953,952,951,952,953,954,955,953,952,952,952,954,956,954,951,953,955,958,957,955,956,954,956,958,956,958,956,956,956,959,956,955,952,953,952,957,957,954,954,954,955,955,955,953,954,953,953,958,0
964,960,961,960,964,964,963,963,960,964,965,965,964,963,963,966,968,968,969,970,971,975,980,978,978,976,976,981,984,985,985,984,985,986,990,988,987,984,983,986,989,984,984,982,981,981,980,982,984,986,982,978,976,972,967,965,963,964,963,962,961,959,959,961,963,961,959,957,957,957,958,956,954,956,955,958,958,956,955,952,945,938,935,929,921,913,914,931,960,990,1024,1072,1126,1175,1197,1190,1149,1082,1004,950,929,926,935,945,948,951,950,950,950,950,949,951,952,950,949,947,949,951,953,954,951,951,950,951,952,952,951,951,950,950,952,952,951,950,948,952,953,951,950,950,949,951,952,952,949,949,947,950,952,952,951,948,948,950,952,952,949,947,949,949,950,951,950,951,950,951,951,952,953,951,951,950,953,952,951,952,950,951,953,951,948,947,946,947,950,948,947,946,0
953,952,956,956,955,957,954,954,954,956,954,953,951,953,959,965,966,966,966,967,967,971,968,969,969,969,973,977,975,973,975,972,975,977,974,972,973,969,970,972,969,970,974,975,975,970,965,962,958,956,955,956,952,950,947,945,948,950,950,948,945,944,943,945,943,941,942,943,947,950,947,945,942,942,944,942,941,931,925,920,918,911,900,901,909,929,945,963,979,1002,1033,1078,1130,1170,1194,1197,1176,1115,1040,977,936,921,922,930,939,942,938,938,938,935,937,940,938,935,934,934,938,939,941,942,941,938,939,940,939,939,939,938,940,942,944,941,938,936,936,939,936,936,934,935,938,940,940,938,935,933,937,937,938,936,933,935,937,938,936,939,938,935,936,939,939,938,936,935,938,938,939,939,941,937,939,940,939,935,936,936,937,940,940,938,936,933,934,934,935,934,932,931,0
948,946,944,947,949,951,948,947,947,949,953,949,948,948,949,952,957,961,960,959,958,961,965,965,965,964,964,968,971,972,970,967,967,969,967,967,965,965,966,967,967,965,962,961,959,962,966,969,968,959,957,956,959,953,947,947,944,947,945,946,945,943,943,945,945,943,944,943,940,941,943,943,942,941,940,941,942,943,940,936,929,926,923,920,913,903,905,920,946,977,1011,1057,1113,1167,1202,1202,1163,1091,1006,949,927,922,925,932,936,938,940,941,939,941,936,939,939,939,939,937,936,939,940,940,941,938,938,939,942,941,940,939,938,940,941,940,938,937,939,940,942,940,940,938,940,941,942,941,941,940,939,941,942,942,941,942,940,942,943,942,942,940,941,942,945,945,944,943,944,945,945,944,944,942,941,944,945,942,940,942,938,941,940,943,939,937,935,938,939,939,935,936,0
966,966,968,968,968,966,964,965,969,969,968,969,969,974,979,981,979,981,981,985,984,988,986,986,987,992,992,993,991,990,986,987,988,985,985,985,985,989,990,988,985,984,986,992,994,990,984,978,975,976,976,970,967,966,963,965,967,965,966,964,964,964,965,967,964,965,962,963,966,963,965,961,961,963,963,961,954,945,937,936,934,923,913,914,922,939,956,974,989,1006,1039,1090,1146,1190,1217,1214,1174,1098,1019,958,935,936,949,960,963,957,959,957,956,957,963,960,958,957,957,960,959,960,960,958,958,958,959,960,961,959,958,961,957,958,957,956,958,958,958,962,960,960,959,959,961,959,959,959,958,960,960,961,960,959,957,959,962,961,960,960,960,961,964,963,961,957,959,963,963,965,963,963,961,963,965,964,963,960,959,964,965,963,963,963,960,962,964,963,962,962,960,963,0
969,970,971,970,966,967,971,972,972,969,968,969,970,972,974,976,977,981,984,984,985,985,984,986,991,992,994,994,990,991,990,991,990,986,984,984,987,989,987,986,984,981,983,986,990,994,992,984,981,979,977,973,971,969,970,969,968,964,965,964,967,968,967,966,963,963,964,964,966,965,963,962,965,966,965,964,961,956,952,948,943,941,933,921,920,932,951,968,983,1000,1028,1068,1117,1161,1188,1199,1183,1129,1053,980,939,929,940,954,960,959,956,958,959,962,963,960,959,956,959,960,960,957,957,957,957,958,958,958,959,953,954,958,960,959,955,958,958,960,958,959,956,955,956,959,960,956,955,956,957,960,959,954,954,957,958,960,958,956,956,955,957,959,958,959,958,954,955,959,958,961,960,959,960,961,961,959,959,956,961,963,960,960,959,955,956,958,959,958,958,957,959,961,0
957,958,957,956,957,957,957,957,956,955,958,960,960,958,957,955,959,958,962,964,966,968,970,970,973,971,972,972,976,979,981,978,977,975,975,975,973,972,974,972,970,974,976,979,979,973,967,966,965,958,954,952,953,953,951,950,948,949,948,950,951,951,947,947,946,950,951,948,946,945,947,948,951,949,948,944,947,946,941,939,929,922,922,918,909,899,903,920,948,972,1008,1055,1108,1155,1185,1188,1153,1077,999,944,915,917,925,935,935,934,938,938,942,942,940,938,935,937,938,939,938,939,940,939,939,939,937,937,938,940,937,939,935,934,939,939,940,938,936,933,936,936,939,939,937,936,939,940,937,936,933,931,936,939,938,937,934,934,937,939,940,938,934,934,937,939,940,940,937,936,936,938,938,939,938,936,937,937,938,935,936,933,933,934,934,933,929,927,928,929,932,930,0
951,950,951,948,948,951,951,949,948,950,952,953,952,949,948,948,951,950,950,953,952,957,962,964,963,963,965,966,970,972,973,972,974,973,973,974,974,971,969,972,972,970,969,970,972,976,973,966,963,959,955,954,954,954,951,949,947,951,951,951,953,950,948,950,949,951,951,951,950,952,953,953,952,951,948,950,952,952,949,947,941,935,929,926,920,909,910,933,964,1000,1039,1091,1147,1190,1208,1190,1128,1042,970,929,923,931,943,946,945,947,949,950,948,947,945,948,948,948,948,947,946,947,949,950,952,946,944,947,950,949,950,948,947,947,949,951,949,949,945,945,949,949,953,949,948,949,952,952,951,949,946,948,949,950,950,946,947,947,949,950,948,947,946,948,950,951,948,947,947,947,946,948,948,946,945,948,948,948,947,946,942,942,943,942,943,943,941,942,943,945,944,943,0
961,962,961,961,958,959,961,962,961,960,959,961,963,966,968,966,971,974,975,978,977,976,973,976,978,980,982,982,980,982,985,985,985,985,982,984,981,980,981,979,978,975,979,982,987,987,981,977,973,973,969,963,961,960,959,960,962,956,955,956,959,959,958,955,954,954,953,958,955,953,954,954,955,955,954,954,951,952,949,944,937,930,926,924,917,911,917,933,960,992,1028,1078,1133,1175,1198,1197,1162,1084,998,939,917,922,934,945,947,946,944,945,948,950,948,947,945,945,947,947,946,946,944,944,947,948,947,946,946,946,946,948,950,947,944,948,950,949,950,947,947,947,950,949,946,947,946,948,949,951,949,947,946,946,949,948,949,946,944,947,950,951,950,950,949,949,951,952,950,950,949,947,951,950,949,947,948,949,949,951,951,950,948,947,950,952,950,948,948,949,948,951,0
958,956,952,954,956,958,958,959,957,955,957,960,960,962,963,963,967,970,973,972,972,971,970,972,971,973,974,976,978,981,982,980,981,978,977,979,980,979,978,978,976,975,975,980,981,979,973,968,966,964,959,955,958,955,954,955,954,951,951,956,951,953,951,950,950,952,952,952,949,947,946,947,951,951,947,944,940,934,931,928,928,923,916,907,904,908,922,938,961,983,1012,1056,1107,1144,1176,1185,1168,1110,1033,963,928,920,930,942,944,944,943,945,948,949,947,944,943,945,946,946,943,942,940,942,944,943,942,941,943,944,944,944,942,942,944,944,945,945,944,942,943,946,949,948,945,942,941,943,946,943,942,942,942,943,944,943,941,941,941,943,944,944,943,942,943,945,946,945,941,941,940,942,944,944,944,941,942,944,946,947,943,942,945,945,944,944,941,940,940,939,940,940,0
948,948,943,941,941,944,944,949,949,948,948,947,949,950,952,950,951,955,957,961,959,959,959,960,965,968,969,968,967,966,968,968,969,966,963,963,963,963,964,966,964,962,964,964,961,960,961,964,967,963,958,954,949,948,947,946,944,943,939,939,942,943,941,939,936,936,939,941,939,937,934,936,938,940,939,938,936,938,939,932,924,918,907,904,902,898,908,926,951,985,1026,1077,1131,1169,1188,1176,1126,1050,977,931,908,908,915,928,931,933,927,927,931,932,933,932,932,931,932,930,931,930,928,931,931,934,931,930,927,928,931,930,930,930,926,929,929,932,931,931,927,929,926,933,932,931,929,930,930,933,930,929,926,929,930,932,931,930,928,931,931,930,930,931,929,929,931,934,936,932,931,932,933,933,934,931,930,928,932,934,932,933,931,930,929,932,928,930,926,925,927,929,0
957,956,953,951,953,955,956,956,954,951,953,956,956,960,959,962,965,966,969,969,968,965,968,970,972,974,974,973,976,978,979,978,975,973,973,973,975,975,974,970,969,973,979,980,979,972,968,967,964,962,958,953,953,953,954,953,950,949,951,948,953,952,951,947,948,949,950,950,950,946,949,950,952,951,947,941,935,929,925,921,910,901,903,914,934,950,965,978,995,1017,1051,1094,1140,1176,1204,1219,1217,1173,1095,1006,944,923,927,936,944,944,945,945,946,946,944,941,942,941,944,943,941,942,943,942,945,944,944,943,941,941,945,945,943,943,944,942,946,947,944,943,944,943,945,946,944,943,945,945,947,946,944,944,944,946,944,946,946,944,946,947,948,946,945,944,946,946,947,947,946,945,946,945,947,949,943,944,943,945,945,944,944,944,944,944,946,944,944,943,944,944,944,944,0
961,959,958,961,963,962,960,959,961,963,964,960,962,960,964,967,971,973,972,973,974,977,976,979,980,978,979,984,986,985,984,982,982,984,982,983,979,977,978,980,980,977,978,980,985,987,981,975,971,964,964,964,963,960,958,956,957,960,961,960,958,955,956,955,958,957,955,952,955,954,957,956,955,953,954,955,956,953,951,945,940,933,930,927,918,907,917,941,967,998,1033,1086,1142,1183,1199,1180,1121,1037,965,930,925,935,944,947,947,950,950,953,950,947,948,949,949,948,948,947,947,948,950,950,946,947,950,950,952,951,950,947,948,949,951,950,947,948,948,951,951,950,949,947,949,949,951,951,948,949,950,952,955,953,951,950,950,954,952,954,952,949,951,951,952,953,952,949,950,952,953,952,951,949,951,953,953,953,953,952,951,951,954,951,951,949,946,948,950,950,949,948,0
951,951,952,953,953,953,951,949,951,953,952,953,950,949,951,954,954,956,958,959,960,962,964,966,967,967,970,971,974,975,974,971,971,970,972,969,966,964,967,967,967,965,966,966,971,969,966,959,956,952,949,951,949,948,944,941,947,949,950,948,945,944,942,943,943,944,941,939,939,942,944,942,940,938,938,939,944,944,942,938,931,926,925,921,911,902,900,911,935,963,995,1040,1098,1150,1180,1184,1151,1089,1014,962,933,914,909,913,925,931,935,934,935,935,936,936,936,936,933,930,930,930,931,932,932,932,931,934,935,936,933,930,931,932,937,936,933,928,933,933,934,934,932,930,933,932,932,934,933,932,934,932,932,931,928,925,928,933,934,934,934,932,931,933,936,934,932,931,932,934,933,934,934,932,934,934,935,935,934,932,931,933,934,932,928,926,927,928,929,928,924,921,0
943,941,940,937,938,939,942,941,939,939,939,941,945,944,942,939,942,942,945,945,944,943,946,948,953,953,956,952,952,956,958,960,960,962,961,965,966,966,962,962,964,967,969,971,974,972,967,964,958,956,951,944,944,943,945,943,942,938,939,940,941,940,939,936,935,938,939,938,937,936,937,937,940,940,939,938,937,937,938,932,922,915,912,909,903,899,910,933,967,999,1041,1093,1143,1179,1192,1174,1117,1030,958,919,909,915,925,932,932,929,930,933,936,935,932,931,930,931,933,932,929,931,930,932,935,935,932,932,932,933,934,934,931,931,930,931,933,934,933,930,931,931,934,931,932,930,931,933,935,935,930,931,932,933,936,935,934,931,934,935,935,935,934,934,930,934,935,936,934,932,933,935,936,936,935,932,931,932,933,934,932,932,930,933,932,932,932,931,929,932,931,933,0
947,950,949,949,946,947,949,948,948,947,949,949,952,954,952,951,949,952,955,960,963,962,960,960,964,966,966,967,966,968,970,973,969,970,966,964,968,968,968,966,964,964,968,969,965,967,962,969,973,973,964,958,953,952,950,949,949,946,943,944,945,946,945,945,943,942,945,946,945,944,941,942,942,944,944,941,940,939,935,931,921,914,911,902,900,910,934,961,990,1030,1083,1138,1179,1204,1217,1211,1174,1104,1019,952,918,913,922,933,939,938,935,936,937,938,938,935,933,933,935,934,936,934,934,933,934,937,939,937,935,935,935,935,937,936,932,929,933,934,937,935,933,932,934,936,937,935,936,936,938,938,935,934,932,933,935,937,936,936,934,935,935,939,938,936,935,935,937,939,937,937,937,936,938,939,937,937,935,934,936,938,939,936,934,936,937,939,940,938,937,936,938,938,0
949,950,951,949,949,947,946,950,950,951,947,947,948,949,953,954,953,954,958,961,963,966,964,965,964,967,969,972,969,968,970,972,973,973,971,969,969,969,970,967,966,966,966,967,965,966,968,973,971,968,963,961,958,952,949,950,953,948,946,944,944,944,944,943,942,941,940,944,945,942,944,942,942,944,945,945,941,937,935,929,922,918,912,903,897,902,923,949,975,1008,1059,1114,1157,1183,1200,1206,1189,1155,1105,1045,987,942,916,911,920,930,935,934,933,935,939,936,936,932,933,935,937,936,936,932,932,935,938,936,933,930,932,935,937,937,934,931,932,933,934,933,932,931,931,934,932,933,934,932,934,934,935,933,931,931,930,930,935,936,935,930,930,930,933,934,933,929,928,933,936,936,936,933,933,935,938,937,935,931,929,933,935,933,934,933,933,931,932,934,931,929,929,931,0
941,940,943,943,941,941,939,940,942,946,944,942,941,942,947,949,951,954,952,954,957,960,957,956,957,960,964,967,967,965,962,961,959,964,961,960,960,961,961,958,954,956,961,965,966,963,957,951,946,944,943,943,942,939,935,936,938,939,939,940,938,938,939,939,937,935,935,935,938,940,939,939,934,936,935,937,937,937,933,925,920,919,915,907,896,895,907,933,956,980,1018,1068,1125,1164,1186,1187,1155,1091,1025,973,940,920,909,902,901,907,911,918,923,925,926,927,927,929,927,928,929,934,932,930,928,927,930,932,930,931,929,930,934,935,934,929,929,928,933,931,933,931,929,928,930,931,931,929,930,929,932,933,933,931,928,928,931,932,931,931,929,931,929,935,932,934,931,932,934,935,936,935,934,931,934,934,933,930,931,931,933,932,934,932,930,929,930,929,926,925,923,925,0
952,950,949,950,952,952,950,951,948,952,953,954,951,952,953,956,961,960,962,961,962,965,966,967,969,970,970,973,973,972,971,969,968,968,968,968,969,967,966,967,972,974,977,974,968,963,960,960,955,952,949,950,950,950,949,949,947,948,949,948,947,945,944,946,949,949,949,947,946,949,952,950,950,948,944,946,947,946,941,934,926,922,921,917,909,903,912,936,965,997,1033,1081,1137,1182,1206,1203,1161,1083,996,939,921,924,934,938,941,941,944,944,943,939,940,938,941,941,941,939,938,941,943,944,942,940,937,940,941,941,939,938,939,940,944,942,940,938,938,940,942,944,941,940,940,940,941,942,941,941,941,942,944,943,940,941,940,943,944,940,941,941,942,942,943,942,944,942,940,943,946,943,945,945,943,945,948,946,944,943,941,942,946,943,943,942,940,940,941,940,938,937,0
956,958,959,958,960,957,955,957,959,960,956,954,955,957,960,959,959,960,959,964,967,970,969,968,969,973,976,978,978,979,979,980,982,981,978,977,975,976,975,978,976,971,971,976,980,984,982,975,969,967,968,964,958,956,954,955,957,957,957,955,952,954,956,957,954,954,953,954,955,953,955,952,951,953,954,955,952,950,949,948,944,935,928,922,917,910,914,930,955,981,1013,1057,1113,1165,1194,1202,1186,1130,1053,978,933,922,930,939,947,946,948,945,945,946,948,946,947,946,943,945,946,948,946,944,943,946,949,949,948,947,945,946,948,947,948,947,946,948,948,951,949,947,948,948,951,951,949,948,946,947,948,949,949,948,948,949,950,951,949,947,949,950,951,953,952,948,949,949,952,953,951,950,949,949,952,950,952,951,948,949,951,950,948,948,947,948,949,948,947,947,946,946,0
955,959,959,959,958,957,956,957,957,958,955,957,958,961,960,960,957,959,961,964,969,970,970,968,970,973,976,976,977,977,980,982,980,976,976,972,976,976,978,977,977,976,978,977,977,973,973,974,980,983,981,974,966,965,961,960,956,954,954,953,953,959,959,956,951,951,951,953,952,951,950,952,952,952,954,951,949,949,948,945,938,928,923,917,907,904,914,938,962,992,1036,1093,1143,1177,1196,1200,1183,1132,1061,986,941,919,921,932,940,942,940,936,940,944,943,942,938,942,943,942,943,940,939,939,941,943,942,940,938,939,940,941,942,941,941,938,942,944,941,938,938,937,939,941,942,940,940,939,939,940,939,940,939,937,938,940,938,938,939,939,939,942,942,943,940,940,943,941,941,939,938,935,937,940,940,939,936,936,935,939,939,934,935,934,934,935,937,934,932,931,931,933,0
948,948,946,949,950,950,948,944,950,950,952,950,949,948,948,951,954,955,957,956,959,959,959,960,958,959,961,966,966,967,967,968,971,971,972,968,967,963,965,969,971,970,967,963,963,963,964,966,965,964,961,958,955,949,947,946,947,948,947,946,946,946,947,945,945,945,939,941,942,945,945,942,943,941,944,945,943,941,937,930,924,926,925,917,904,901,909,929,954,986,1025,1077,1137,1180,1196,1171,1104,1019,952,926,919,924,932,935,936,938,941,940,939,934,938,939,939,939,936,937,938,938,941,939,939,938,937,942,941,939,938,936,936,940,940,941,939,936,937,941,938,940,938,937,937,939,939,937,936,937,938,938,940,938,937,936,938,940,940,942,938,940,940,942,941,939,940,937,938,940,938,939,938,937,937,938,938,934,933,933,934,931,934,932,931,931,933,933,932,932,931,929,0
959,960,963,964,962,962,961,960,962,961,963,960,959,963,966,966,967,966,967,971,973,977,976,977,976,977,980,983,981,985,984,986,986,986,985,984,981,981,984,982,978,979,978,977,976,979,982,983,982,979,974,972,969,964,961,959,959,961,960,959,957,959,960,960,958,957,955,956,957,956,955,953,952,954,954,955,951,948,941,936,931,928,922,912,903,908,926,948,974,994,1020,1065,1120,1171,1208,1220,1203,1149,1064,983,933,925,932,942,951,948,947,948,945,948,949,947,946,945,943,946,948,949,946,944,943,945,947,947,945,945,941,946,948,948,948,946,945,947,948,948,947,946,944,945,948,947,947,947,945,947,948,947,947,945,943,946,947,950,947,946,943,946,948,948,948,946,946,946,948,952,950,948,948,944,949,948,947,945,944,944,944,945,945,946,944,947,947,945,946,944,944,945,0
958,960,963,962,961,961,960,960,962,963,963,960,961,961,964,966,966,967,966,970,975,975,975,972,971,975,979,981,982,984,980,981,982,981,981,979,976,977,981,980,977,978,978,984,987,985,977,972,969,966,967,964,963,959,957,958,961,959,960,955,954,959,960,959,960,958,957,957,957,961,957,957,955,957,957,958,957,956,954,948,942,936,930,924,917,913,925,945,973,1002,1036,1091,1148,1191,1211,1204,1159,1081,1006,952,929,928,937,948,955,954,950,951,950,951,950,950,950,947,947,948,948,950,949,947,946,948,950,947,949,950,949,950,952,951,950,948,946,950,951,952,951,949,947,946,949,951,952,949,947,947,952,952,950,949,948,950,952,953,951,952,950,951,952,955,953,952,950,952,954,953,952,948,949,952,953,953,952,948,949,951,953,952,952,951,947,948,950,952,950,949,947,951,0
960,957,958,963,963,963,960,958,961,960,961,959,959,958,963,964,965,967,970,968,970,972,973,972,974,974,976,979,982,983,981,980,980,981,976,974,972,976,976,975,975,977,979,980,981,976,974,970,965,961,956,957,957,955,955,953,955,958,957,955,952,953,953,956,956,957,956,952,954,956,955,956,954,952,952,954,954,954,950,943,937,933,930,920,911,909,924,947,975,1004,1045,1094,1143,1180,1195,1176,1126,1047,981,944,929,927,934,940,943,946,945,945,947,946,944,944,946,945,944,941,946,947,949,948,945,942,942,943,945,946,944,940,942,944,945,943,942,941,942,943,944,945,941,941,942,942,944,945,941,940,942,944,946,944,942,942,944,945,946,945,943,944,941,942,943,945,944,942,942,943,946,945,944,944,944,943,943,941,941,940,940,941,944,941,939,936,939,942,941,940,939,937,0
954,952,951,950,952,953,955,952,950,949,951,954,955,954,951,954,955,955,960,960,961,962,965,965,965,966,966,969,970,974,973,969,968,969,969,971,969,969,968,967,966,968,971,970,972,969,967,964,959,954,949,950,949,950,946,946,942,945,948,950,947,947,944,946,946,949,947,947,945,946,948,949,949,947,946,946,947,944,936,930,924,925,923,914,905,905,919,943,968,995,1031,1079,1129,1173,1194,1187,1141,1065,989,945,928,926,930,938,939,942,942,945,944,944,941,943,943,943,942,941,940,942,942,943,945,944,942,944,943,944,944,944,942,943,945,947,943,942,941,942,944,945,945,945,942,943,945,944,946,944,941,942,943,945,943,942,939,942,940,942,942,943,942,943,943,942,947,944,942,943,946,946,948,945,942,943,945,946,944,945,941,941,942,943,942,941,939,940,939,941,939,939,0
964,962,961,959,962,964,965,964,964,962,965,968,970,972,973,971,974,974,979,977,977,977,978,981,983,986,982,981,985,987,985,982,982,978,981,982,981,981,980,978,976,980,985,987,983,978,973,973,970,967,965,960,960,958,959,958,958,956,958,957,959,959,956,955,957,959,958,956,955,957,955,958,959,958,956,953,953,952,952,943,934,929,929,922,915,918,935,961,993,1025,1066,1118,1168,1198,1216,1206,1154,1070,992,943,929,936,946,954,953,950,951,951,952,954,950,948,949,952,953,951,949,948,951,952,952,951,950,947,948,949,951,950,946,946,947,948,950,951,948,945,947,950,951,951,947,947,949,951,950,949,949,949,951,950,952,951,951,949,949,951,950,950,951,948,949,948,949,950,950,948,950,951,951,952,951,950,951,952,953,954,953,950,951,952,953,952,949,947,949,947,950,947,0
955,956,960,959,960,958,956,956,958,961,960,956,956,958,961,961,963,962,961,964,969,974,973,973,970,971,975,976,979,980,979,980,980,981,981,978,974,976,977,977,977,973,971,976,980,982,976,969,964,963,961,960,958,954,952,950,953,954,955,955,954,955,953,953,953,952,948,949,950,952,953,951,950,951,949,950,950,945,943,943,942,935,929,920,911,904,910,926,957,988,1030,1092,1146,1181,1183,1148,1076,995,943,924,927,933,940,939,942,941,944,941,938,939,939,939,940,940,938,938,941,942,943,942,941,939,941,942,941,938,935,937,939,941,939,937,936,936,937,941,940,938,937,938,939,943,941,938,939,940,942,943,943,939,937,939,940,941,939,938,935,935,938,940,939,939,936,938,939,940,940,940,937,937,939,940,940,938,938,940,939,937,936,936,931,932,933,934,934,933,931,933,0
949,948,945,943,945,945,947,946,946,945,947,947,949,944,944,943,945,946,949,952,953,953,955,954,956,956,957,958,960,963,964,965,964,963,961,963,964,963,961,960,961,961,963,959,955,953,962,965,964,956,950,946,942,942,941,942,939,937,939,942,941,940,939,936,938,937,940,940,937,936,936,937,939,939,935,933,931,927,922,918,912,904,893,889,891,902,913,930,952,977,1013,1065,1123,1167,1189,1172,1107,1019,949,915,910,916,927,930,932,930,929,933,935,932,931,930,930,931,932,931,932,930,930,931,932,933,931,929,930,932,936,933,932,931,930,933,936,935,933,931,932,934,934,932,933,930,932,932,931,932,929,930,929,933,934,933,933,931,935,937,939,937,936,935,935,936,935,935,934,933,932,934,934,934,931,929,929,927,930,931,930,929,928,928,931,928,927,924,925,927,928,928,0
950,951,953,954,950,949,949,953,955,953,952,948,950,951,952,952,950,951,950,951,954,955,953,952,956,959,966,965,966,964,966,968,971,971,972,969,973,974,974,974,970,967,968,971,972,970,963,963,966,973,979,975,970,961,959,959,958,955,952,949,949,949,952,950,949,949,949,947,947,948,946,945,946,944,945,948,945,944,944,942,939,933,924,917,911,906,908,927,954,984,1024,1075,1134,1184,1212,1215,1192,1140,1069,1001,948,917,911,918,929,940,940,937,936,939,939,939,938,934,936,938,939,939,935,932,934,936,938,937,936,935,936,939,939,939,937,934,937,938,939,939,936,934,935,938,938,939,937,936,937,937,938,940,936,934,935,937,940,939,938,937,938,939,937,939,941,937,937,939,941,942,939,940,939,941,942,944,940,937,939,940,942,941,939,936,938,940,939,940,941,936,936,937,0
