941,959,956,974,941,959,939,956,940,943,984,967,961,956,926,934,935,960,961,924,949,935,951,946,970,957,928,928,944,954,941,941,952,949,947,935,935,944,968,929,932,938,935,953,946,946,949,957,940,996,971,942,944,943,939,972,963,922,950,955,956,956,948,961,945,950,964,943,945,917,971,963,945,952,955,942,962,925,938,954,959,943,953,955,975,993,1015,1045,1082,1134,1196,1226,1251,1246,1227,1162,1134,1082,1026,1001,979,939,976,940,956,967,942,952,932,957,930,955,919,948,937,973,947,931,959,956,966,959,956,960,949,941,943,956,961,955,965,945,932,976,947,958,961,966,933,972,942,942,939,956,956,965,950,960,953,954,946,943,947,951,949,924,950,960,942,954,953,947,948,924,953,919,973,964,969,944,965,960,941,964,949,945,956,941,955,947,966,934,963,941,957,948,926,0
971,944,962,932,961,965,969,955,928,928,945,946,940,961,955,919,943,940,949,945,948,960,968,933,961,964,986,955,940,938,947,938,924,978,934,956,965,953,948,960,949,964,934,956,940,966,956,959,932,925,982,928,960,946,986,938,952,945,928,938,944,948,953,954,976,948,946,957,966,949,936,932,949,942,974,1074,1096,1100,1103,1149,1178,1180,1191,1219,1239,1230,1256,1272,1263,1289,1309,1353,1316,1311,1289,1303,1277,1280,1262,1235,1263,1244,1239,1183,1153,1151,1128,1109,1131,1101,1042,957,971,968,976,971,929,966,937,945,962,971,955,966,951,962,922,942,927,926,952,933,938,935,967,966,938,948,933,944,949,967,953,938,958,947,921,933,928,966,933,932,934,949,944,946,936,945,953,926,944,936,976,946,936,954,926,952,959,974,958,931,949,956,940,933,922,940,944,947,969,920,956,926,920,953,948,1
966,953,953,921,955,957,943,944,967,951,951,943,950,957,961,966,919,947,962,934,960,940,937,964,945,962,942,933,948,942,928,957,920,955,964,956,984,955,960,947,933,957,960,949,957,929,927,954,946,951,944,953,959,945,946,958,951,971,941,950,940,964,962,960,967,950,944,934,964,939,942,937,926,956,967,944,925,969,966,953,959,958,934,942,972,985,1013,1048,1099,1148,1184,1248,1244,1274,1233,1167,1124,1058,1025,1014,963,995,950,964,987,952,961,958,932,979,951,934,931,922,932,949,933,960,952,948,962,949,946,974,932,936,951,951,946,928,954,946,944,931,935,970,937,930,947,962,945,947,958,980,968,975,939,951,950,981,943,965,943,951,948,959,942,939,942,941,938,952,908,953,982,952,920,959,947,962,935,942,966,941,944,972,965,959,933,967,937,948,937,964,966,957,967,0
953,957,978,936,910,952,910,953,921,942,958,948,957,962,946,924,951,948,925,935,966,950,948,946,944,984,962,934,943,959,926,982,933,930,952,948,974,933,941,937,955,951,952,961,960,934,961,962,960,945,936,949,942,969,956,962,937,920,930,956,938,959,943,942,939,925,931,956,953,968,939,952,960,940,951,869,880,861,825,818,806,801,797,814,776,788,757,774,762,748,717,750,718,778,734,726,746,744,758,749,774,793,796,791,804,841,835,833,865,867,843,934,971,958,919,933,924,964,950,916,931,936,949,920,926,984,947,945,939,958,958,952,937,935,941,957,927,976,952,943,934,931,958,946,982,972,963,966,940,939,944,973,937,965,967,950,954,971,979,938,964,927,958,936,965,952,954,958,949,909,936,945,943,931,946,945,951,946,952,936,952,956,937,940,971,951,930,1
941,959,948,974,958,952,957,982,945,929,952,929,952,953,941,943,939,945,931,930,944,952,948,932,941,962,948,924,946,951,958,938,954,954,930,963,960,940,949,957,942,962,964,922,976,950,945,980,924,944,953,935,957,944,976,949,958,959,944,939,951,923,946,926,958,949,938,946,951,931,956,958,941,966,923,878,860,853,851,840,830,829,796,795,772,773,774,751,754,730,753,738,729,743,721,724,730,760,743,759,761,772,800,803,798,808,841,867,853,858,867,932,967,944,956,957,943,938,933,941,929,942,962,938,948,947,941,969,953,989,921,956,962,952,964,921,935,941,941,954,912,941,947,961,978,931,957,960,933,943,948,966,943,966,929,935,936,917,938,958,959,934,944,933,945,961,977,970,936,945,951,979,939,935,955,943,950,944,956,931,935,943,948,947,965,959,924,1
956,961,959,947,973,963,935,954,940,935,923,943,974,960,954,939,952,926,965,943,957,955,945,938,966,930,956,931,964,961,976,954,968,948,954,978,931,972,936,932,938,957,965,946,942,961,969,951,965,932,945,949,949,958,946,940,939,966,934,961,938,942,967,954,934,927,928,952,946,960,954,951,953,940,961,1016,1029,1022,1035,1049,1030,1057,1043,1051,1070,1130,1122,1115,1107,1098,1125,1147,1118,1123,1114,1158,1145,1138,1119,1121,1078,1073,1081,1065,1053,1071,1042,1055,1046,1021,1043,956,948,929,933,965,954,964,934,959,969,939,937,939,937,954,944,928,930,928,937,944,937,980,928,924,966,932,955,954,926,950,965,956,958,934,934,943,933,944,946,956,946,935,940,948,935,955,929,951,950,933,937,951,937,977,943,941,961,940,967,943,933,941,935,945,940,933,966,949,970,954,949,942,937,926,928,1
959,964,984,970,971,950,943,924,953,950,950,943,936,948,933,953,947,942,932,938,947,946,941,943,975,953,944,962,944,961,987,944,951,963,955,952,967,955,947,924,973,941,944,977,967,950,952,970,936,947,943,939,958,945,925,949,957,955,945,940,935,931,960,962,948,960,955,947,924,960,947,939,960,967,959,954,926,950,950,952,945,959,952,969,961,959,1016,1023,1099,1137,1190,1228,1245,1238,1211,1162,1121,1095,1041,994,995,974,979,976,956,965,947,939,924,957,945,945,926,951,949,972,920,965,956,925,949,955,943,962,914,956,971,925,940,948,947,975,957,973,956,957,933,962,952,936,938,950,963,949,935,947,956,956,932,967,952,941,935,936,946,932,942,945,993,922,931,950,939,921,939,960,934,947,941,949,951,953,936,932,942,957,929,927,936,970,963,946,938,962,953,946,955,0
948,957,958,931,956,947,948,976,934,965,952,946,956,951,952,945,940,948,934,951,931,948,933,957,970,965,959,946,962,961,958,954,923,943,939,974,938,953,936,972,934,960,960,928,922,969,965,971,936,967,956,949,944,939,937,936,942,996,966,957,942,947,961,957,951,960,960,948,947,944,922,938,967,962,939,1008,1008,1047,1036,1047,1060,1061,1088,1087,1088,1101,1119,1106,1115,1126,1127,1126,1137,1138,1121,1112,1099,1129,1094,1119,1085,1089,1072,1058,1072,1058,1051,1026,1030,1018,1003,943,974,956,952,940,970,953,960,967,922,951,923,946,938,937,970,919,948,940,904,959,951,946,946,920,935,957,946,955,944,963,964,957,930,935,949,932,961,969,961,945,942,947,948,961,922,932,947,935,953,964,918,964,959,946,957,951,948,938,947,957,961,954,955,952,964,969,937,948,935,945,973,952,937,918,950,1
963,944,941,940,955,941,950,951,965,959,919,974,939,938,975,936,961,966,951,955,970,925,943,963,947,942,949,953,925,954,945,936,924,919,961,959,945,960,935,941,958,960,968,961,943,935,953,951,953,966,927,975,950,941,969,946,950,935,954,967,943,982,933,979,944,946,926,927,955,946,962,953,959,956,941,848,859,844,862,850,831,808,809,762,775,745,742,738,766,747,758,738,722,718,735,733,733,749,755,768,791,771,780,826,823,787,842,849,848,877,887,963,947,971,950,944,961,959,934,942,948,963,960,936,948,958,948,949,959,922,964,931,917,950,958,990,934,920,962,984,969,946,933,971,937,956,958,947,959,943,940,968,940,941,981,939,937,957,956,918,930,953,938,946,956,948,942,959,961,963,956,938,959,934,960,961,959,968,943,952,951,943,960,932,962,943,941,1
978,959,958,940,940,957,940,946,949,935,939,959,962,923,961,968,951,958,954,958,954,968,968,969,946,936,946,940,946,959,960,970,919,934,966,947,914,935,954,946,945,945,923,953,903,947,953,981,927,928,921,941,963,955,958,942,950,956,936,965,941,939,970,927,951,948,913,947,946,972,924,967,920,953,940,953,933,963,941,950,937,957,956,959,973,987,1014,1057,1075,1173,1176,1221,1224,1248,1228,1158,1135,1099,1065,1002,994,987,940,948,936,954,947,965,909,977,962,963,944,959,951,961,941,946,952,986,915,948,948,964,975,977,965,955,939,886,964,937,967,958,965,943,945,961,961,935,963,959,964,965,957,948,950,948,960,937,939,957,972,936,932,925,937,931,962,951,949,953,941,946,952,947,972,936,961,956,950,974,949,915,942,931,955,933,943,977,953,970,931,960,946,973,976,0
939,932,950,946,965,935,939,940,945,927,973,989,953,967,964,962,928,950,940,951,949,933,945,951,930,943,961,947,955,943,943,950,951,951,955,956,957,957,943,941,964,958,958,969,940,935,933,966,937,954,951,951,953,957,931,930,944,957,939,959,992,925,966,942,944,973,953,933,936,932,958,958,968,955,994,855,888,847,849,822,815,784,824,797,800,762,755,747,739,734,740,722,741,757,758,729,756,732,774,764,767,784,806,785,814,853,842,828,866,855,884,967,944,939,965,937,959,967,972,1000,969,929,958,943,945,956,938,962,938,942,928,969,951,946,942,959,922,971,949,946,920,958,948,929,952,931,978,973,945,949,924,973,931,935,958,943,946,936,968,953,929,940,929,947,940,974,941,949,974,925,948,945,930,933,949,952,977,935,948,964,922,933,940,963,937,941,956,1
926,972,965,958,943,975,955,958,954,948,945,937,922,935,942,972,949,959,947,980,954,957,979,948,947,940,956,950,913,948,939,950,974,941,944,941,953,933,951,960,938,949,962,936,948,958,936,959,971,972,952,954,959,940,966,959,962,918,964,918,948,949,950,953,930,943,962,931,959,975,966,951,938,962,957,979,956,943,977,945,951,984,965,951,927,992,1009,1033,1093,1134,1199,1232,1260,1232,1224,1195,1142,1074,1041,1016,979,938,929,955,967,933,929,952,921,929,960,973,947,945,945,931,960,951,973,939,952,950,938,957,950,948,931,976,958,930,942,932,973,947,947,960,939,957,963,946,991,956,958,933,941,942,958,942,950,931,936,954,957,938,959,945,974,926,979,949,933,952,966,972,953,953,931,925,947,951,929,948,958,959,949,962,942,936,949,944,943,933,961,988,940,968,939,0
950,973,942,941,975,971,951,958,933,970,948,966,937,954,931,941,974,970,978,977,928,938,973,960,958,945,953,964,940,971,951,969,953,949,941,947,954,951,978,960,962,946,958,911,932,966,939,921,954,974,962,935,949,983,975,934,957,953,974,935,944,942,950,965,976,949,952,930,962,935,978,971,936,947,938,968,960,961,953,983,937,946,932,965,968,994,1037,1064,1076,1142,1179,1197,1274,1247,1240,1196,1126,1082,1062,1014,978,976,952,927,948,952,957,946,961,939,945,940,952,974,942,965,964,955,918,968,948,975,978,930,947,931,916,956,946,923,940,961,941,958,983,968,938,936,958,960,953,933,928,936,967,929,931,966,942,925,947,970,940,957,967,927,956,976,913,942,958,948,949,954,957,953,946,958,949,955,923,966,957,945,928,955,943,941,964,947,959,946,929,954,926,965,930,0
967,940,954,946,933,970,953,959,955,962,955,961,948,930,946,931,941,960,954,942,951,956,951,933,939,950,935,933,953,957,963,972,942,939,959,971,944,975,938,986,958,934,956,982,956,951,978,950,943,965,919,949,982,958,968,935,916,975,940,933,934,954,940,968,962,936,942,953,964,928,920,934,942,958,945,1087,1102,1088,1138,1104,1181,1187,1203,1227,1215,1240,1243,1255,1274,1306,1276,1302,1285,1311,1296,1311,1305,1283,1290,1257,1247,1253,1215,1219,1167,1168,1148,1115,1103,1096,1082,953,916,959,955,921,957,951,942,941,938,968,962,936,962,936,950,974,939,943,922,954,940,969,952,954,962,927,943,968,950,948,974,964,956,942,946,956,969,939,927,969,953,963,957,987,953,938,954,942,951,932,947,945,960,948,925,952,936,960,954,927,925,949,962,980,951,957,977,938,928,942,971,966,933,933,972,1
927,937,969,928,944,962,943,916,961,950,968,952,944,935,940,958,941,933,923,937,945,941,941,967,990,924,951,929,930,945,935,947,935,977,926,958,969,928,949,990,959,951,942,961,933,941,962,940,947,934,951,949,944,943,933,962,934,930,954,943,932,969,954,946,937,918,942,956,988,937,965,934,953,941,969,1061,1100,1117,1115,1136,1167,1168,1197,1226,1240,1249,1232,1286,1280,1291,1284,1307,1319,1292,1311,1299,1312,1266,1247,1261,1248,1234,1196,1200,1137,1143,1141,1136,1127,1092,1055,938,956,941,939,931,939,972,945,946,927,941,958,950,936,954,958,946,942,943,942,939,957,966,935,961,954,935,942,933,940,956,946,946,942,950,945,955,923,934,951,958,945,948,962,941,967,971,963,985,962,954,953,988,941,965,947,954,946,931,942,955,970,947,944,936,922,944,959,940,963,944,955,943,968,944,967,1
940,972,944,954,956,940,947,942,934,948,957,960,950,962,948,937,975,933,925,952,937,969,967,939,937,960,937,950,951,947,966,951,957,967,961,972,959,946,974,952,952,941,940,958,961,950,935,955,949,930,918,952,954,962,957,932,958,958,956,963,959,964,934,943,935,938,945,944,954,923,958,959,960,951,930,919,937,951,940,950,946,951,922,934,964,994,1027,1056,1051,1132,1162,1247,1227,1208,1240,1174,1110,1063,1029,963,977,955,927,949,919,968,938,948,951,948,925,951,959,957,953,929,974,969,963,963,936,960,935,961,925,945,968,935,965,967,934,946,939,950,949,931,929,960,948,950,974,951,938,951,967,961,953,945,942,920,945,942,936,951,931,957,945,920,930,944,948,973,960,944,968,960,948,945,947,931,955,943,977,939,944,939,972,930,905,950,973,954,958,936,960,966,972,0
968,950,959,948,961,968,956,936,942,954,973,944,954,966,966,931,940,958,946,954,932,959,940,935,936,951,944,951,964,948,944,978,950,939,957,962,983,971,945,970,951,932,944,944,955,990,948,953,947,942,959,937,950,941,956,975,929,961,925,947,956,950,930,951,930,955,957,926,975,971,938,967,957,950,962,937,964,964,942,927,955,953,937,967,979,1006,1009,1038,1093,1127,1211,1246,1263,1232,1199,1190,1112,1086,1053,995,999,948,947,924,939,907,935,986,958,920,931,944,946,972,958,956,952,932,976,941,949,941,943,911,982,961,954,950,948,969,953,944,946,972,939,951,938,949,952,952,980,941,928,935,935,951,947,951,967,966,936,962,979,952,948,967,935,947,928,944,945,958,930,931,978,923,955,954,960,940,952,948,929,942,908,919,964,949,941,944,952,928,960,951,940,977,933,0
929,974,975,933,954,947,949,979,954,965,956,965,933,926,974,927,941,939,961,978,925,954,941,938,925,943,941,956,945,926,950,958,946,955,953,949,945,949,955,976,984,928,962,963,951,945,962,919,956,944,957,943,964,936,945,930,969,947,947,940,946,927,950,966,982,952,948,950,927,933,943,950,926,940,954,1020,1019,1027,1036,1031,1064,1070,1074,1071,1107,1101,1125,1106,1115,1112,1141,1118,1118,1162,1102,1112,1127,1129,1107,1120,1071,1110,1084,1064,1093,1066,1053,1018,1034,1048,1040,959,930,980,965,972,968,953,915,938,974,954,959,963,953,938,986,961,956,958,962,956,966,945,947,955,943,947,943,952,960,946,959,936,918,954,966,989,927,951,950,945,948,955,950,958,940,951,933,968,927,956,943,958,950,963,945,915,922,938,946,947,935,960,944,952,948,963,940,951,948,951,917,968,945,960,974,1
936,956,945,957,929,946,944,958,956,959,970,950,937,957,942,957,943,931,945,951,939,942,943,974,988,974,956,962,948,939,939,950,940,950,971,957,954,965,962,957,939,952,984,920,948,936,951,951,959,954,932,934,964,958,940,954,937,960,938,949,949,940,931,939,930,951,948,956,913,943,940,934,951,969,936,942,968,928,955,929,958,919,957,955,974,977,1008,1049,1111,1121,1189,1210,1241,1253,1262,1192,1121,1073,1041,994,963,968,930,933,956,941,935,952,956,953,935,932,954,943,943,954,953,945,980,955,985,965,958,945,913,964,936,972,968,939,941,1002,977,959,928,946,955,940,961,938,953,968,945,955,949,944,938,948,950,965,944,936,969,958,966,966,923,957,972,951,972,945,954,947,944,956,955,945,943,940,916,946,950,935,931,950,960,955,954,918,956,960,973,953,952,959,951,0
956,931,964,956,944,931,911,928,934,954,962,979,936,969,937,940,948,941,958,934,936,941,927,929,964,938,935,954,943,945,958,962,946,944,918,950,951,990,937,946,967,945,921,975,944,939,961,940,945,954,949,983,944,957,940,954,951,949,944,970,945,962,972,984,957,939,932,929,946,925,966,964,951,936,956,896,877,852,850,837,839,787,827,789,776,799,766,739,746,749,726,745,736,721,748,733,752,760,742,768,744,815,766,797,810,842,854,824,858,880,866,947,945,960,943,980,960,947,953,973,960,926,963,942,943,961,961,969,926,945,937,942,959,956,937,964,936,948,989,957,950,958,937,972,946,961,941,953,959,961,917,934,937,934,945,934,960,938,948,947,960,930,943,948,959,937,955,957,971,958,952,947,961,967,944,971,948,942,927,951,971,933,923,946,967,940,944,1
944,949,955,960,961,947,946,956,932,936,960,940,939,936,979,937,937,948,941,959,954,965,929,973,935,938,963,946,968,960,937,917,975,949,955,960,951,944,951,957,908,949,969,943,939,944,988,938,939,968,915,944,932,974,944,938,933,942,949,939,925,955,970,967,926,931,922,952,960,938,971,971,945,968,945,1008,1025,1041,1025,1034,1069,1070,1080,1069,1062,1114,1119,1131,1143,1112,1138,1132,1132,1120,1125,1112,1100,1102,1091,1125,1099,1074,1075,1070,1077,1068,1051,1008,1028,1024,996,953,941,974,977,971,947,953,970,957,966,957,924,953,956,938,961,950,934,972,930,958,919,962,967,961,973,955,938,942,957,958,972,940,965,946,964,951,952,922,945,944,962,956,951,956,951,962,935,949,970,942,932,964,958,936,955,958,965,953,952,937,952,945,952,953,943,960,952,948,947,957,956,964,926,960,971,1
931,940,954,936,962,957,966,987,941,929,940,939,942,936,953,965,920,957,941,935,967,956,951,951,967,942,922,962,958,965,961,940,968,962,956,914,976,929,917,937,946,955,946,947,967,938,921,945,970,927,942,952,935,966,953,934,946,938,949,941,993,959,949,936,942,970,956,945,957,956,946,937,974,956,951,972,950,966,957,955,957,926,967,967,976,1004,1017,1077,1083,1121,1205,1231,1275,1255,1248,1171,1131,1100,1025,1008,988,973,935,940,981,925,945,941,956,958,962,940,932,936,947,932,956,946,945,968,964,918,949,947,970,952,932,956,947,958,962,972,937,952,972,922,970,939,958,955,964,960,954,956,945,965,977,938,970,965,949,935,935,960,939,950,916,971,960,959,940,939,965,941,954,932,929,932,960,969,952,955,952,979,929,966,945,961,956,954,957,942,952,957,940,963,968,0
963,955,946,934,960,966,943,963,925,971,942,941,938,948,966,944,944,960,946,942,966,962,941,959,928,933,934,963,956,925,935,934,947,931,936,965,947,960,964,950,958,941,967,944,923,945,930,965,955,972,945,928,933,966,947,963,934,951,946,962,970,927,948,945,945,942,959,946,944,929,938,975,942,984,969,955,954,914,971,935,937,961,967,967,960,980,1023,1030,1093,1164,1201,1226,1266,1245,1233,1175,1127,1071,1048,1025,969,971,930,936,961,944,936,961,975,921,945,928,934,943,969,949,943,979,950,931,940,945,953,939,934,949,964,930,950,928,930,934,955,948,918,954,923,956,938,956,958,961,958,966,934,943,980,949,936,960,938,947,979,912,958,939,969,958,934,940,943,979,935,951,961,962,961,936,933,927,921,935,964,946,943,949,937,927,939,977,975,963,941,942,934,950,969,0
949,972,951,939,949,946,956,939,962,958,957,944,938,947,952,952,940,967,949,962,929,970,974,929,942,927,941,967,946,949,952,942,930,963,937,966,955,943,967,941,963,957,977,972,948,962,953,942,954,958,931,954,952,945,969,913,944,945,965,947,944,935,931,949,938,948,935,948,919,941,970,980,939,934,938,952,941,948,929,936,925,932,962,940,983,979,1010,1074,1087,1137,1185,1256,1264,1270,1218,1213,1142,1079,1030,1010,981,970,952,968,934,929,952,959,932,953,967,932,944,969,945,961,948,930,962,949,955,924,934,940,940,914,936,942,972,954,931,954,952,945,940,935,941,951,933,938,966,956,954,982,955,945,949,963,965,967,960,963,960,944,969,945,964,969,951,946,936,953,940,970,936,955,958,929,938,949,952,945,947,943,966,944,956,957,947,939,936,960,969,958,967,983,966,0
937,954,943,960,963,948,922,946,932,945,954,924,952,941,962,1001,937,961,948,944,958,949,964,935,949,974,945,956,967,968,938,949,961,949,959,938,957,934,951,974,968,967,957,946,954,945,937,919,935,942,947,932,965,979,941,957,930,955,948,959,960,936,961,940,963,947,957,939,948,951,960,926,978,971,963,997,1036,1009,1056,1042,1060,1074,1060,1091,1092,1126,1082,1119,1134,1118,1146,1116,1129,1122,1135,1117,1117,1105,1084,1111,1120,1072,1086,1034,1049,1067,1027,1040,1028,1013,1004,908,955,933,925,974,948,956,946,930,991,967,947,954,938,941,929,956,954,932,947,963,945,956,944,939,919,923,919,931,948,924,930,976,934,965,932,948,941,936,964,945,932,959,941,962,947,947,967,940,941,960,950,965,934,948,966,945,955,957,940,945,967,942,945,951,965,966,936,937,959,959,934,976,938,926,946,1
946,948,937,972,938,938,952,947,965,928,931,960,947,940,963,947,957,973,959,942,947,934,957,960,915,944,969,927,928,942,957,934,962,934,957,950,956,932,939,946,923,951,940,955,941,950,959,959,922,960,928,933,970,952,970,972,957,941,956,966,966,942,975,960,958,962,966,940,937,955,941,953,926,940,930,958,950,965,943,958,944,920,959,962,989,967,1020,1043,1117,1143,1190,1187,1265,1268,1245,1169,1112,1102,1028,1020,998,962,933,958,953,972,974,980,961,936,937,939,953,937,970,947,926,955,936,942,975,941,956,944,933,947,961,970,986,943,981,945,926,984,974,960,969,939,967,970,945,952,953,928,953,949,924,931,935,945,949,941,990,936,959,976,960,947,968,938,930,955,935,959,957,943,950,954,959,934,947,944,912,955,956,953,981,951,965,948,964,963,964,924,951,959,954,0
946,932,962,927,947,991,942,959,972,961,961,959,952,960,975,946,956,941,946,924,924,966,984,963,972,926,975,963,959,943,944,958,939,959,932,907,948,967,947,952,953,970,927,954,947,954,953,969,970,961,938,941,949,958,947,954,969,962,964,976,959,950,960,941,943,951,941,964,953,952,955,919,913,948,940,935,938,967,943,965,963,952,953,948,950,993,1026,1040,1098,1144,1186,1225,1239,1259,1204,1176,1149,1077,1052,1025,968,979,923,951,919,928,948,959,960,964,959,963,953,937,960,961,931,942,943,917,934,960,960,952,921,949,951,932,949,920,938,969,958,952,938,970,975,939,941,921,929,973,968,943,953,958,965,973,953,939,923,930,981,940,973,952,980,965,934,978,959,961,969,958,942,949,922,958,947,960,927,948,944,964,953,952,969,956,953,981,947,957,933,946,962,969,955,0
959,944,967,958,946,989,954,974,953,932,951,960,986,945,942,935,960,938,926,921,949,945,941,952,952,950,963,938,956,917,971,908,943,967,984,937,975,959,963,967,948,959,971,961,954,983,954,928,942,971,928,959,932,942,934,973,947,951,958,964,941,935,939,942,982,930,958,915,937,955,943,946,940,951,945,961,937,937,938,934,948,933,970,948,954,1020,1000,1030,1104,1141,1186,1219,1254,1234,1234,1172,1126,1094,1040,1029,985,971,931,951,947,921,931,926,916,902,934,958,940,954,977,952,955,931,939,943,936,958,930,927,945,945,951,966,955,950,954,947,953,966,936,957,1000,965,923,939,949,945,956,942,935,947,919,957,927,941,962,969,943,976,943,957,960,947,944,951,960,957,938,957,959,962,924,950,962,934,947,943,953,970,974,912,964,942,930,953,944,977,940,966,933,944,947,0
954,942,965,944,949,929,931,943,956,947,936,942,955,960,944,960,977,963,954,935,954,944,964,973,971,966,951,939,957,953,936,967,924,946,962,949,941,970,958,956,943,966,951,965,952,948,952,960,961,971,934,945,947,957,972,950,968,962,950,973,937,942,959,930,940,943,958,936,934,952,962,960,943,963,976,965,940,955,952,929,929,955,905,965,979,974,1010,1047,1078,1140,1189,1243,1225,1249,1237,1179,1158,1088,1041,993,966,968,938,933,959,953,927,962,967,954,940,979,915,941,946,948,956,941,962,943,924,924,949,907,959,947,956,921,955,939,933,959,966,962,950,945,961,935,933,964,948,943,934,940,940,945,940,925,960,955,947,931,950,947,944,945,942,943,956,959,951,924,960,943,962,915,969,967,948,950,945,935,966,923,954,946,973,972,955,938,952,951,938,938,940,952,927,0
954,955,950,949,944,933,932,945,947,952,950,962,966,950,942,948,960,979,956,940,964,942,968,928,943,980,957,975,936,933,964,962,928,964,951,920,940,983,949,964,946,940,969,952,931,964,948,955,956,967,963,946,935,964,968,954,969,967,968,968,937,972,941,949,967,951,971,938,938,936,936,954,954,972,933,942,962,949,949,953,946,938,927,968,983,990,1021,1034,1070,1129,1186,1218,1236,1235,1263,1199,1157,1122,1010,1021,975,973,951,943,939,958,958,947,920,963,912,942,961,964,958,976,934,963,965,966,964,933,964,939,974,941,923,965,930,948,954,969,955,943,951,972,908,959,935,944,943,944,957,977,942,963,937,961,959,952,949,969,971,957,954,952,957,934,952,945,940,943,944,961,964,963,977,970,952,943,964,915,944,961,939,968,935,980,961,951,956,945,941,929,957,989,949,0
953,947,968,951,957,957,940,952,943,960,952,969,945,978,940,942,936,950,954,967,955,942,952,947,969,950,940,961,944,968,978,947,974,936,941,983,959,956,946,966,959,942,970,968,948,942,950,953,960,917,950,927,955,955,944,972,962,946,969,954,930,950,944,960,955,948,939,947,918,947,940,948,969,969,945,1007,1023,1035,1029,1081,1083,1057,1052,1059,1067,1094,1094,1113,1126,1131,1140,1147,1126,1106,1134,1136,1145,1116,1106,1106,1108,1077,1073,1059,1033,1058,1047,1050,1022,1046,1005,957,944,930,942,939,950,953,978,956,938,941,954,943,970,950,952,939,953,955,960,957,933,952,971,946,974,919,952,948,942,934,957,945,946,947,941,958,938,948,947,960,946,940,960,968,956,940,953,945,956,932,966,945,923,963,917,938,953,960,952,949,951,947,957,952,942,961,961,944,956,988,949,954,944,947,942,1
954,947,938,947,962,957,952,938,978,939,935,945,949,961,946,951,928,961,953,958,939,926,957,948,978,967,926,957,954,964,949,948,938,926,947,932,933,973,941,961,935,959,956,964,963,956,975,951,936,934,939,936,933,961,976,937,944,926,919,950,955,950,936,974,933,950,922,949,939,957,949,970,940,933,932,1068,1101,1128,1124,1120,1153,1151,1208,1262,1233,1231,1279,1288,1269,1291,1298,1315,1332,1337,1294,1300,1291,1285,1275,1261,1237,1221,1190,1212,1182,1170,1172,1181,1100,1095,1051,946,948,948,960,945,935,961,952,943,959,957,932,958,947,970,939,960,951,944,955,939,943,978,954,934,939,955,941,938,924,935,961,944,960,969,960,944,940,957,950,980,988,934,924,929,936,949,964,938,968,965,936,947,973,953,959,949,949,958,949,918,950,929,976,955,995,926,953,933,919,928,943,947,943,961,953,1
940,980,987,956,969,957,971,943,956,947,968,965,942,944,968,921,961,948,952,943,947,933,969,953,951,938,951,949,951,959,955,966,962,955,971,911,950,973,964,936,947,940,930,966,958,979,943,936,937,931,941,946,956,934,943,963,938,950,940,925,946,947,966,957,947,922,950,969,942,983,927,954,941,963,956,1075,1057,1088,1142,1166,1151,1187,1189,1178,1219,1245,1268,1285,1296,1290,1321,1301,1292,1298,1312,1297,1276,1280,1266,1254,1251,1208,1207,1166,1168,1172,1111,1135,1115,1110,1089,936,973,957,955,960,967,941,954,920,939,975,966,952,935,960,963,942,971,936,946,907,949,951,938,961,976,944,938,932,965,942,954,953,974,948,978,951,948,946,926,940,967,958,963,960,949,948,971,931,929,971,946,948,941,959,963,955,940,948,940,959,943,957,924,953,943,943,971,930,934,962,948,962,942,940,955,1
979,937,947,960,930,956,935,947,939,940,952,951,937,941,979,949,932,952,963,975,956,921,950,938,955,931,961,974,924,939,955,929,962,930,949,927,932,941,959,951,951,965,953,968,936,973,949,961,951,951,945,960,922,962,911,956,961,952,965,961,944,957,932,963,977,958,945,884,945,920,932,943,937,964,961,1003,1018,1027,1028,1036,1061,1048,1054,1091,1095,1117,1100,1123,1116,1130,1135,1113,1153,1128,1105,1143,1113,1124,1093,1124,1086,1060,1086,1068,1055,1067,1035,1027,1027,1015,987,952,943,945,964,952,933,946,927,935,978,946,950,951,933,922,932,956,954,944,952,965,962,978,938,944,960,954,943,951,940,952,956,964,935,965,973,957,954,944,965,939,959,950,952,947,948,926,965,966,968,959,939,978,927,903,948,949,946,941,932,948,971,950,943,969,935,937,932,954,937,941,954,960,951,975,954,1
950,955,933,952,916,955,952,949,943,936,966,924,960,948,953,935,941,945,953,960,978,934,928,943,947,959,944,917,951,954,964,898,935,944,950,963,953,953,944,939,973,970,930,922,979,928,916,955,951,943,930,964,976,912,965,941,959,947,961,951,960,941,947,961,959,949,915,924,964,954,959,963,960,955,975,946,927,960,939,935,923,977,955,957,970,967,1014,1034,1082,1134,1183,1228,1256,1243,1238,1179,1144,1092,1043,1002,980,970,967,948,956,939,938,928,944,963,931,940,976,944,943,964,952,921,965,952,970,967,955,943,934,961,949,935,945,947,939,951,976,946,958,956,952,952,956,965,937,950,944,956,964,950,978,974,966,980,947,932,931,951,959,921,968,934,962,929,934,951,956,938,990,954,957,951,962,955,942,914,939,966,933,945,966,955,936,961,956,918,968,947,940,945,949,0
925,948,944,953,936,942,939,976,958,948,949,943,964,954,947,966,951,953,917,957,964,963,964,949,981,976,967,961,973,941,961,920,955,953,958,950,958,950,928,973,944,952,928,964,938,948,972,926,930,942,950,942,966,980,940,923,957,950,967,940,953,946,958,953,966,921,947,936,956,948,958,941,938,946,958,1076,1094,1090,1138,1156,1166,1164,1183,1226,1209,1273,1265,1272,1295,1326,1281,1294,1344,1323,1314,1303,1303,1299,1289,1260,1242,1216,1201,1190,1183,1149,1140,1131,1107,1098,1087,967,935,968,946,966,944,931,956,943,916,960,929,942,951,930,950,952,960,965,988,959,976,952,952,933,915,944,945,940,926,961,968,967,960,956,962,945,966,937,943,978,931,945,928,919,916,957,945,950,955,962,941,946,931,940,979,959,924,965,944,948,951,941,938,942,937,962,967,959,946,971,975,932,967,953,953,1
928,941,956,944,931,956,923,970,963,940,944,931,983,956,940,923,966,955,955,947,987,959,950,947,958,924,921,951,936,965,949,960,922,963,930,968,950,952,959,947,957,914,944,933,950,924,954,975,953,951,961,954,933,953,929,971,948,944,951,967,945,920,961,954,909,960,951,938,924,956,961,967,945,942,961,1028,1002,1024,1058,1035,1049,1072,1062,1074,1079,1098,1120,1093,1099,1131,1121,1102,1150,1120,1120,1127,1118,1132,1117,1118,1118,1082,1095,1033,1077,1073,1059,1040,1044,994,1019,943,965,944,945,959,957,960,975,955,935,925,947,960,968,950,954,921,926,966,959,941,956,946,957,950,956,918,955,960,947,944,954,937,956,943,955,956,948,948,964,969,963,940,929,933,941,925,946,947,939,950,961,964,958,943,952,940,945,917,938,948,962,976,923,964,948,947,928,934,955,972,962,991,950,934,960,1
932,946,956,909,939,946,953,957,931,931,976,971,940,921,957,944,944,957,931,961,912,977,940,954,959,944,929,932,950,953,944,953,967,970,950,938,942,943,950,943,925,971,942,919,946,944,934,951,931,962,932,965,940,962,963,957,936,955,943,941,952,935,943,952,949,953,945,947,949,943,964,980,938,916,944,1064,1091,1133,1124,1134,1157,1160,1212,1193,1243,1257,1281,1287,1297,1284,1331,1319,1294,1344,1321,1301,1291,1269,1264,1264,1259,1236,1203,1227,1159,1150,1148,1134,1112,1103,1074,950,944,943,949,927,935,955,927,950,945,948,957,971,949,988,929,931,930,942,934,959,972,946,958,985,957,946,933,992,951,924,948,986,930,922,962,960,943,942,935,950,946,913,957,945,951,931,943,943,943,957,939,969,964,956,945,981,975,934,941,949,979,951,928,951,961,947,943,931,952,966,953,929,936,962,943,1
931,974,934,938,965,940,947,935,950,956,930,952,952,942,950,945,964,961,945,930,947,967,922,957,944,959,949,960,940,949,959,955,969,958,938,949,959,971,924,931,966,974,982,951,910,944,948,950,940,988,948,931,939,942,951,941,933,949,935,914,965,957,951,976,967,953,976,933,956,955,946,952,952,930,955,1074,1072,1090,1109,1118,1194,1181,1193,1196,1191,1262,1259,1265,1264,1267,1296,1302,1304,1313,1334,1296,1287,1280,1285,1257,1230,1247,1222,1170,1187,1174,1105,1113,1105,1103,1068,968,947,936,953,973,931,966,937,948,952,953,953,949,949,939,953,920,947,939,950,960,951,945,957,963,941,977,914,962,950,940,944,946,948,961,961,921,967,941,987,944,937,933,956,973,919,967,945,960,955,936,966,953,927,944,914,945,937,986,968,948,938,950,945,955,965,970,946,971,944,946,953,938,943,948,965,1
957,944,958,952,948,955,969,969,937,939,942,978,927,940,950,962,964,943,954,945,945,958,932,937,946,951,915,955,935,948,940,945,953,957,948,938,943,930,980,947,974,931,988,959,965,960,966,959,956,962,918,941,948,932,940,945,987,970,931,946,952,982,949,920,945,954,961,932,949,954,932,967,953,943,960,1068,1061,1097,1120,1158,1175,1197,1214,1238,1237,1237,1242,1280,1280,1289,1317,1319,1305,1345,1314,1289,1282,1280,1285,1275,1246,1243,1226,1189,1190,1163,1143,1111,1103,1102,1064,927,928,974,969,987,937,979,949,934,958,944,974,967,949,957,960,933,948,937,935,937,954,928,958,963,966,977,945,928,932,942,993,943,948,960,939,955,940,945,920,937,954,968,956,924,956,952,951,963,943,951,931,951,957,975,974,941,988,977,945,974,934,939,958,939,964,951,961,935,971,936,955,952,960,949,940,1
923,950,907,940,933,953,943,920,931,953,952,951,956,949,937,940,962,953,938,945,948,930,951,954,939,958,933,927,978,962,962,975,940,964,940,965,924,939,949,922,943,945,952,918,944,961,963,938,951,954,938,921,948,935,964,971,965,934,942,942,950,932,949,939,927,975,967,951,937,979,933,970,935,955,963,872,881,855,871,840,791,836,816,783,783,766,764,748,746,762,755,739,737,689,729,728,735,735,749,751,757,789,801,808,794,823,837,882,852,858,864,945,944,971,955,951,932,955,953,957,947,945,932,948,981,948,946,976,952,934,944,954,958,966,934,950,956,952,929,938,985,962,952,962,953,961,966,969,943,968,941,977,960,938,932,965,978,951,919,983,951,942,953,922,970,961,948,963,945,959,954,978,948,952,926,962,953,965,941,979,956,954,950,967,961,943,959,1
911,929,961,955,948,920,949,969,939,944,974,945,933,969,940,927,942,938,912,944,948,965,934,939,962,934,937,963,934,963,952,940,943,953,951,952,956,940,941,945,961,950,961,952,921,949,949,983,985,945,949,926,948,949,940,971,954,945,975,969,937,950,949,958,958,936,960,934,939,936,931,954,950,938,932,1076,1091,1089,1118,1141,1165,1171,1198,1220,1210,1252,1266,1286,1280,1307,1318,1316,1315,1302,1294,1268,1310,1280,1306,1269,1232,1251,1210,1209,1186,1182,1142,1108,1103,1065,1070,947,950,945,964,936,941,957,939,950,935,960,945,933,941,941,971,963,938,967,968,949,946,940,960,938,954,947,921,959,969,962,949,946,956,947,941,950,968,937,970,954,946,955,960,963,964,924,939,958,934,930,954,954,944,959,939,940,940,948,931,937,937,940,971,951,947,925,948,949,926,976,955,960,942,968,931,1
936,979,961,975,950,949,950,943,955,957,938,941,950,913,957,920,940,932,941,956,915,959,938,952,927,949,925,989,977,963,953,930,915,948,922,947,960,922,956,954,973,954,945,951,965,955,950,920,931,939,933,947,962,962,939,945,928,926,941,980,958,962,963,949,936,929,943,954,968,955,965,972,961,942,923,879,878,868,826,850,832,816,789,779,784,775,756,771,756,743,726,746,762,738,759,731,761,750,745,769,776,778,813,804,816,843,810,847,889,867,876,952,942,975,952,932,928,947,963,946,955,955,945,944,933,978,934,950,944,964,941,959,940,962,932,954,961,966,946,944,939,946,984,916,938,934,945,957,948,960,949,967,973,979,943,954,941,967,954,963,968,963,952,970,957,930,976,936,961,962,946,931,947,948,991,963,963,940,938,943,943,944,948,972,935,942,964,1
966,991,941,947,947,936,943,963,941,948,937,946,956,970,967,942,965,952,959,956,975,934,948,977,958,972,953,929,975,935,959,939,956,964,922,960,967,937,950,969,947,946,938,943,951,925,957,937,938,956,940,946,944,952,941,929,942,959,963,947,954,949,975,962,961,938,960,975,957,935,946,949,962,945,963,952,949,962,951,941,944,928,944,940,963,963,1010,1057,1081,1139,1185,1209,1238,1237,1240,1194,1148,1111,1034,1014,1029,972,914,959,949,934,946,949,940,949,930,973,960,951,956,948,948,974,948,931,934,921,962,955,961,972,932,927,960,947,961,959,915,980,916,934,934,934,927,969,937,941,927,946,958,951,969,945,966,927,934,957,947,969,953,953,964,942,967,957,985,956,964,935,971,978,976,950,933,944,936,956,951,944,970,951,952,961,936,935,961,951,975,963,963,962,934,0
934,937,959,979,969,964,972,989,958,953,969,951,967,975,958,984,943,969,951,960,954,961,971,916,953,926,932,944,958,937,941,950,980,975,960,970,935,971,940,940,960,939,989,950,933,968,942,945,949,925,971,965,955,949,972,952,950,924,963,944,940,935,975,933,931,949,948,961,944,944,953,949,963,979,943,945,949,923,953,917,949,954,941,969,958,984,1005,1048,1099,1129,1164,1245,1240,1259,1243,1161,1130,1074,1045,1025,970,939,949,957,961,945,962,961,937,946,970,935,935,965,958,950,965,942,961,948,952,930,928,951,959,944,942,962,980,968,960,977,929,969,941,956,946,968,955,937,949,953,959,972,964,925,965,957,963,948,950,953,938,947,966,965,974,950,947,953,951,969,920,973,977,967,950,952,954,948,954,955,933,951,963,937,926,947,932,950,962,929,932,955,960,933,942,0
946,932,951,916,945,939,981,962,971,957,955,983,962,934,943,978,963,946,948,964,943,945,967,938,921,965,932,964,963,952,927,937,964,940,964,915,975,933,936,931,954,925,940,952,954,937,943,954,945,950,938,956,918,945,940,984,966,951,957,964,930,957,954,933,925,942,954,948,923,930,944,938,974,949,942,936,922,943,942,937,954,938,948,970,955,989,1013,1053,1086,1120,1180,1239,1244,1263,1244,1184,1127,1084,1051,998,980,972,999,957,947,960,928,978,946,902,950,969,939,979,953,969,931,923,972,950,981,945,936,967,956,952,936,961,929,954,945,936,951,962,937,965,936,982,938,945,932,938,931,944,938,951,942,960,956,954,949,943,944,966,974,945,950,947,953,930,963,932,965,945,955,943,948,940,953,936,961,960,966,945,953,976,949,932,948,942,941,966,947,939,976,955,973,0
967,960,961,954,955,963,967,954,930,963,936,944,941,973,970,960,938,954,944,942,955,933,921,971,935,949,925,925,927,949,967,954,944,1008,939,939,947,961,938,958,942,947,965,957,945,928,932,957,953,944,941,954,933,952,974,949,944,963,930,943,919,945,968,976,935,940,948,988,961,963,972,930,954,937,981,880,874,850,845,835,846,795,797,802,801,802,776,734,724,757,723,747,743,723,746,741,708,747,743,747,763,773,803,808,805,837,823,861,862,836,901,962,943,908,982,940,955,951,950,947,933,953,940,951,942,929,972,951,949,945,949,955,965,983,905,967,943,956,938,933,978,948,951,944,949,941,960,943,930,968,957,936,943,955,951,953,930,916,935,973,955,958,959,968,931,928,952,959,948,929,944,959,960,935,941,920,947,943,939,958,955,930,947,923,949,936,971,1
958,969,947,948,950,954,939,955,966,960,947,959,950,939,943,946,946,978,951,960,936,947,969,958,963,948,931,939,940,923,940,961,917,950,961,919,952,941,956,943,942,973,979,934,928,946,966,934,921,971,939,932,947,951,969,970,946,927,955,927,953,913,933,937,956,934,929,941,925,960,948,959,936,949,958,897,876,857,838,820,820,830,799,810,787,774,779,783,764,764,755,710,739,700,745,717,728,749,713,759,755,783,800,822,810,826,821,861,843,846,868,923,946,955,956,943,938,930,922,938,927,975,940,925,958,973,958,942,961,969,925,946,940,946,946,972,967,941,946,932,948,948,963,915,951,956,925,963,954,942,950,928,946,928,914,967,950,960,933,960,935,920,933,942,959,916,963,942,943,964,945,966,970,937,940,944,959,956,958,940,980,944,947,961,960,958,953,1
943,945,930,969,938,932,944,943,969,962,946,927,968,966,943,928,944,946,963,933,960,972,956,952,945,932,936,948,933,938,944,945,947,966,929,942,961,965,973,945,954,956,949,977,967,959,966,960,953,930,949,928,957,966,932,946,962,958,948,966,931,918,945,941,929,933,962,925,950,967,936,965,930,971,930,929,934,947,925,946,940,950,981,944,959,985,1012,1044,1097,1131,1176,1224,1242,1247,1241,1162,1121,1078,1022,1023,986,952,967,949,947,943,957,951,935,976,953,933,963,957,947,957,958,948,981,955,952,959,978,924,914,959,920,932,949,955,939,954,962,944,925,968,954,942,967,929,951,942,940,941,940,944,931,949,969,957,957,940,977,934,967,955,921,949,937,944,935,942,944,937,950,946,923,942,956,924,952,941,980,939,916,936,956,977,950,942,935,967,940,960,944,950,940,0
932,925,955,934,952,945,918,937,961,974,920,945,933,947,959,941,972,961,945,956,955,965,947,951,946,929,952,969,941,929,931,936,979,920,951,959,935,951,932,936,966,944,972,956,934,936,959,945,946,919,953,937,947,952,949,943,936,936,956,938,946,960,932,948,977,976,926,976,940,964,936,930,954,932,935,967,939,960,938,950,956,960,938,954,997,984,1005,1039,1056,1142,1138,1227,1263,1259,1235,1168,1137,1100,1048,1022,990,971,965,960,943,935,931,934,944,912,944,932,949,949,931,974,935,941,960,934,949,924,932,951,954,956,956,935,955,953,951,937,935,949,954,942,954,952,976,961,954,941,955,948,939,944,945,943,967,970,935,945,934,957,935,984,949,957,932,964,966,960,946,932,953,927,952,953,954,943,953,966,946,949,975,973,953,946,965,962,939,967,943,963,933,931,955,0
951,937,973,958,941,956,968,948,960,958,959,944,964,927,938,944,942,946,957,957,950,973,903,948,934,943,939,975,934,959,933,951,959,928,939,949,940,919,957,970,929,974,944,975,957,945,933,954,951,953,933,958,964,946,953,957,951,944,941,941,937,957,980,944,959,947,957,941,952,956,928,937,958,955,920,943,969,936,954,930,940,965,946,947,980,950,991,1034,1092,1138,1192,1228,1231,1257,1239,1203,1121,1084,1042,977,991,968,990,947,939,949,952,950,931,934,934,982,939,963,923,939,943,946,935,952,931,953,949,961,956,941,945,939,943,936,991,947,977,967,955,963,946,952,947,975,933,971,946,965,959,951,930,960,959,951,950,970,933,962,973,949,965,959,964,931,961,935,949,962,932,971,934,948,913,975,937,964,968,928,945,914,948,942,922,956,938,945,948,949,961,961,921,0
941,953,947,959,961,941,947,950,948,941,940,938,955,966,959,970,965,952,949,947,959,939,954,956,975,980,926,956,938,951,954,957,932,957,962,941,945,947,959,963,963,955,963,948,910,961,933,940,955,968,945,953,953,950,962,963,936,951,944,909,932,925,942,966,950,973,940,961,948,980,923,939,937,967,972,953,930,935,916,978,965,947,936,960,954,964,1001,1048,1078,1130,1231,1236,1226,1241,1208,1187,1132,1073,1039,1005,951,992,934,972,966,947,952,971,944,960,944,933,947,956,966,942,962,969,945,935,951,942,950,934,936,945,962,941,930,943,940,932,975,940,936,940,941,956,953,943,939,972,962,951,926,959,974,969,950,945,958,954,945,955,956,929,960,954,955,964,946,970,956,963,928,974,956,973,956,956,957,952,956,929,962,953,963,970,967,930,919,933,974,957,922,947,945,0
942,947,935,969,957,953,932,974,930,948,969,960,944,932,954,916,944,940,970,962,944,942,945,939,952,969,930,952,948,936,930,955,972,950,928,958,948,950,918,930,927,925,956,948,933,967,924,948,946,948,954,946,983,942,954,958,952,954,932,944,973,958,955,945,974,956,957,969,931,983,950,957,931,953,940,907,875,860,868,835,836,812,806,823,798,771,759,757,756,730,721,751,708,712,745,732,759,771,765,781,796,787,802,807,795,827,847,870,857,880,896,920,941,940,938,967,943,928,948,964,931,959,957,938,968,961,986,953,979,952,946,947,950,957,958,933,917,943,962,931,961,941,945,960,971,935,951,975,948,947,950,949,985,928,953,956,957,962,968,922,950,950,954,931,920,945,921,938,967,947,945,953,960,984,951,982,968,934,962,935,959,963,960,959,995,940,953,1
927,946,934,948,938,937,949,934,986,952,953,934,957,942,943,923,962,927,950,962,955,945,952,967,947,936,957,965,947,945,966,952,924,936,962,946,945,960,951,954,931,953,941,955,952,949,940,963,977,959,962,966,931,953,954,940,965,950,948,949,941,975,936,939,940,936,943,934,949,960,950,955,944,945,964,940,968,956,937,956,931,928,944,955,976,986,1005,1014,1082,1163,1178,1214,1244,1249,1214,1157,1134,1097,1020,1035,983,978,949,936,939,934,952,935,944,978,954,940,944,938,986,940,929,934,959,946,943,950,951,952,937,961,940,944,977,917,939,948,934,930,957,956,956,953,955,941,955,959,934,948,928,928,957,941,937,937,952,934,959,930,951,946,946,948,959,946,919,922,950,939,952,938,930,959,965,965,938,947,956,955,957,949,957,963,939,947,948,935,946,953,947,965,972,0
942,954,965,944,951,948,946,952,969,973,955,945,975,941,941,930,954,940,946,979,940,961,971,943,949,962,945,959,964,935,945,955,957,929,967,956,930,943,954,948,940,915,941,949,967,945,970,953,959,937,965,964,922,937,947,970,973,947,952,927,978,936,954,939,957,918,945,966,941,938,941,960,967,936,936,954,966,920,934,943,951,935,965,981,960,988,1010,1038,1096,1135,1181,1210,1265,1244,1253,1159,1128,1082,1057,1003,978,966,944,935,937,935,970,959,973,941,954,953,940,931,965,972,919,957,943,948,942,939,943,917,961,956,947,948,948,979,983,972,974,956,957,938,961,945,960,947,931,962,957,909,961,964,962,935,971,973,936,959,973,964,952,967,944,952,959,947,942,971,958,944,954,953,970,941,928,951,954,938,918,950,947,959,953,948,958,973,951,958,947,967,963,941,941,0
960,941,944,947,975,957,951,946,983,967,951,959,955,940,961,931,952,944,934,984,968,946,958,937,943,953,939,935,930,945,933,942,942,967,956,952,964,951,947,948,964,963,960,925,953,949,937,955,947,936,946,968,946,984,949,954,940,951,950,980,951,953,936,941,950,981,986,975,965,962,964,942,921,946,966,939,956,974,933,976,937,918,968,948,979,1002,1011,1025,1097,1111,1174,1249,1253,1247,1242,1198,1134,1100,1037,1029,966,954,944,942,979,961,942,964,935,932,971,938,987,993,971,950,938,974,935,937,939,958,943,973,956,949,936,967,951,953,979,973,950,938,929,928,953,947,928,949,944,927,961,944,965,970,936,976,955,959,939,967,947,936,935,955,941,941,950,894,949,963,928,945,968,961,947,961,939,969,970,967,969,945,950,979,950,947,951,939,930,958,932,942,954,954,950,0
935,944,957,959,954,945,946,970,965,965,980,958,956,938,982,935,962,943,959,958,941,934,971,948,982,951,971,953,954,968,927,950,925,947,930,947,941,962,963,937,965,944,963,929,941,979,925,909,957,931,968,936,958,963,932,922,952,928,954,965,948,984,949,936,955,939,958,951,928,936,963,964,953,933,948,961,949,957,956,970,943,955,958,942,961,977,991,1011,1096,1121,1189,1218,1238,1278,1235,1186,1131,1104,1041,1010,981,962,948,957,942,965,961,952,938,959,959,946,935,955,960,966,936,937,946,938,964,957,940,946,933,952,932,928,964,929,968,960,929,964,946,960,955,952,942,962,942,917,971,948,963,945,935,940,952,953,938,950,934,949,933,939,945,952,944,961,955,987,952,964,943,982,963,961,952,947,957,973,959,938,948,953,951,963,971,944,963,951,929,962,910,963,952,0
938,949,962,969,957,980,940,945,963,936,946,947,972,952,949,956,956,938,939,955,950,954,918,952,977,953,944,959,925,935,932,963,936,954,957,953,953,944,948,940,945,940,919,949,956,956,920,955,926,946,956,953,953,949,955,926,931,968,954,946,933,957,937,964,938,934,939,981,962,966,955,964,995,954,943,948,942,944,945,963,971,954,951,950,978,1008,994,1024,1076,1132,1174,1233,1273,1236,1211,1177,1143,1079,1076,986,982,953,946,952,931,933,911,936,986,939,925,939,956,944,925,937,954,949,950,961,950,959,947,935,948,954,948,946,949,972,936,945,964,951,962,937,974,932,963,908,948,962,947,957,954,944,925,948,974,933,941,948,965,970,956,960,948,973,970,937,921,955,951,936,970,943,958,950,927,929,981,942,951,932,942,971,955,930,948,957,957,934,979,924,924,938,977,0
960,927,952,965,932,941,928,956,951,943,923,937,957,959,957,955,964,965,941,943,947,968,941,956,969,935,931,929,969,939,961,949,950,950,941,980,944,969,954,954,950,956,945,945,967,945,954,973,929,955,929,924,973,934,943,942,963,956,936,936,963,938,978,962,960,921,947,944,921,905,938,951,911,957,937,920,963,955,946,945,953,946,937,919,924,972,983,1062,1092,1134,1173,1229,1238,1251,1238,1183,1119,1077,1045,1006,983,973,968,926,935,933,950,986,942,944,956,933,943,935,963,925,965,963,955,945,963,937,942,958,941,971,983,965,913,962,939,959,950,955,971,965,956,969,954,929,976,953,966,978,937,939,943,965,927,970,960,962,938,961,943,954,938,954,967,956,931,961,944,955,956,942,951,959,984,947,938,945,957,957,948,968,955,940,944,943,938,951,940,937,960,958,925,0
939,962,943,948,940,961,938,954,927,940,985,952,925,969,940,988,962,946,937,969,950,976,944,917,938,935,946,948,938,979,930,954,952,944,946,951,951,944,971,951,959,957,962,948,931,971,951,953,967,939,936,955,932,964,962,944,939,915,951,952,938,915,943,931,976,954,959,940,971,935,938,937,917,957,939,974,944,989,931,939,966,933,938,967,972,996,1013,1041,1097,1151,1192,1221,1261,1224,1220,1180,1139,1089,1041,1007,993,950,955,947,939,940,957,973,947,955,929,954,965,949,946,991,923,938,949,963,932,980,972,963,946,921,978,918,924,954,957,972,959,947,962,962,956,945,944,948,953,945,948,941,954,964,928,950,965,936,932,951,948,975,952,929,947,929,930,960,954,967,948,923,932,921,964,988,945,959,933,957,946,929,936,977,960,997,957,919,962,954,968,949,937,968,936,0
930,948,960,947,971,950,951,956,979,934,927,972,933,992,951,948,957,942,945,920,953,929,923,942,976,912,973,936,952,973,928,947,933,962,937,922,950,975,960,965,933,947,931,938,935,944,935,948,944,957,962,936,950,946,949,948,959,952,958,953,905,948,940,955,941,951,947,956,952,943,943,952,923,941,942,1093,1077,1119,1115,1162,1142,1192,1197,1210,1251,1260,1251,1259,1273,1289,1290,1328,1324,1295,1325,1328,1306,1291,1267,1242,1243,1254,1220,1179,1178,1160,1151,1107,1093,1084,1084,966,939,934,950,947,963,968,934,962,968,931,953,963,969,950,944,936,982,946,957,975,954,940,960,941,949,958,946,938,928,984,940,941,924,944,950,943,946,955,960,972,948,971,963,927,955,955,951,962,935,938,959,932,950,949,980,946,944,938,946,948,933,946,949,949,926,938,946,959,953,937,940,951,949,929,960,1
931,936,953,933,941,928,959,968,957,939,955,946,969,944,955,962,955,968,961,932,977,952,965,958,961,938,959,930,958,949,988,962,959,952,973,943,961,918,989,947,946,923,953,957,948,963,945,946,966,959,942,953,949,936,930,948,970,984,947,939,936,901,936,937,956,971,930,917,938,925,964,945,937,956,984,979,931,950,935,954,941,958,955,952,981,1013,1031,1068,1070,1139,1169,1230,1232,1277,1216,1197,1123,1090,1028,997,961,953,942,946,961,968,972,926,941,927,917,950,953,930,952,938,958,933,935,951,945,946,969,955,933,959,925,962,934,961,957,978,959,952,914,954,970,952,952,936,944,922,965,944,961,945,960,931,921,956,969,917,961,963,954,980,944,958,935,960,954,964,949,937,952,933,944,950,957,942,949,953,977,954,941,927,972,955,960,958,945,967,963,941,970,953,936,0
944,964,952,957,931,970,986,966,956,950,953,928,959,938,947,961,977,959,951,933,950,959,944,935,944,952,947,941,935,959,955,928,943,922,951,936,944,971,926,977,938,954,946,948,901,951,962,922,973,949,962,955,962,942,956,963,960,957,963,947,941,931,947,946,949,975,930,948,920,930,931,925,957,930,959,958,973,949,936,960,936,941,942,973,948,954,993,1055,1071,1152,1206,1225,1267,1241,1206,1170,1117,1098,1046,998,975,972,945,936,967,953,930,942,913,951,964,959,973,955,954,968,959,962,916,962,952,941,972,944,960,937,961,943,957,953,934,953,951,958,951,937,946,951,946,952,935,955,945,945,935,926,948,966,961,961,975,945,958,962,944,953,931,934,940,965,933,955,946,939,965,935,945,957,969,926,977,957,954,923,946,963,987,950,943,948,975,958,952,959,939,960,956,0
954,952,948,967,914,970,940,941,933,956,949,965,937,948,942,968,946,953,934,955,935,953,938,947,937,965,939,935,962,944,955,941,932,922,947,926,908,973,957,971,944,948,946,939,985,966,953,939,937,929,955,929,951,941,945,939,946,929,966,942,950,932,955,950,932,971,945,953,956,942,956,935,926,934,980,1092,1118,1083,1099,1124,1164,1185,1185,1212,1258,1259,1256,1292,1279,1290,1308,1325,1302,1283,1282,1307,1280,1279,1272,1259,1248,1222,1218,1194,1195,1148,1141,1122,1096,1073,1042,947,931,942,965,927,953,948,953,957,940,915,963,970,937,941,921,935,950,954,950,948,932,925,958,953,949,954,937,955,925,957,945,938,911,956,948,950,931,933,957,921,937,931,942,956,954,930,957,943,943,954,945,951,949,955,940,949,932,963,957,976,949,969,926,982,944,952,948,960,957,951,946,963,961,944,981,1
971,954,937,957,935,919,930,930,937,947,941,954,956,969,943,971,952,947,955,946,946,968,957,935,951,948,977,950,950,933,946,954,922,943,937,941,940,957,967,948,951,933,954,960,964,936,975,983,956,939,921,964,946,931,931,939,931,922,948,947,923,962,956,917,955,949,939,962,963,942,940,965,926,939,966,873,903,855,853,791,800,818,816,805,759,757,773,771,734,747,728,753,721,741,717,747,749,733,763,738,769,785,783,820,805,824,854,871,835,882,882,949,955,928,966,937,937,942,936,961,948,951,945,971,956,938,961,928,937,976,930,955,932,938,953,976,929,950,946,956,934,936,946,951,936,944,959,973,940,975,925,939,942,960,960,937,964,944,960,955,960,948,970,952,911,958,932,967,942,964,965,963,961,945,974,942,945,966,940,952,932,909,950,924,944,936,961,1
919,944,950,943,954,975,980,950,954,941,911,947,959,936,930,912,939,943,982,961,944,925,941,945,941,956,938,948,971,975,933,959,937,942,933,959,960,946,957,947,927,939,952,955,949,952,946,961,929,968,971,948,964,960,938,943,916,932,928,965,950,934,965,952,941,976,953,974,945,975,968,929,964,948,960,963,962,951,923,960,941,982,943,970,961,967,990,1034,1102,1151,1203,1237,1245,1243,1227,1196,1126,1074,1017,993,977,940,939,963,918,954,959,961,948,934,965,966,920,964,938,947,948,949,982,928,953,958,952,943,955,948,958,950,947,930,941,978,918,952,928,936,943,939,949,970,923,928,965,936,937,955,962,947,966,941,937,954,978,950,945,967,946,980,929,962,951,942,935,949,952,969,949,966,943,955,953,923,940,961,948,945,950,942,934,949,942,932,960,956,919,956,957,0
950,956,955,926,943,947,971,944,935,960,967,960,955,945,932,950,966,940,971,959,962,951,944,943,922,944,933,956,953,958,941,940,929,970,944,946,940,941,952,924,939,950,959,954,961,948,966,946,930,946,950,938,953,952,953,929,954,946,950,968,923,947,939,950,924,931,949,934,949,947,941,947,935,917,938,880,864,860,864,829,847,805,806,772,827,771,744,761,761,745,750,741,742,734,731,723,759,747,763,759,774,779,783,790,817,819,816,880,855,876,874,960,948,942,932,940,956,954,925,964,939,933,973,961,954,958,943,943,969,942,932,939,932,934,945,962,950,944,954,968,946,977,939,951,930,930,950,960,945,957,937,964,952,939,953,960,947,949,931,953,949,934,939,970,954,926,956,946,952,968,960,965,948,949,945,958,938,958,941,942,935,955,974,922,948,954,937,1
944,953,941,960,949,951,904,954,942,931,944,966,981,958,967,941,946,936,941,946,940,934,950,952,967,960,957,951,962,957,962,944,982,939,983,944,943,962,948,944,930,960,938,933,952,970,930,944,936,959,969,916,925,944,929,939,955,966,932,930,958,960,941,943,966,936,947,957,944,978,949,940,957,965,933,1007,1015,1024,1014,1032,1070,1091,1066,1102,1102,1077,1091,1113,1139,1112,1131,1143,1114,1085,1118,1126,1099,1094,1112,1111,1106,1098,1071,1106,1087,1070,1052,1048,1016,1013,1018,957,962,971,948,937,965,952,970,944,914,927,933,948,951,941,943,931,950,947,950,953,932,971,963,966,950,928,955,942,957,943,965,960,936,952,947,977,929,967,948,931,934,947,964,946,951,959,936,971,955,951,962,962,972,961,954,933,952,949,959,950,965,936,950,950,941,941,943,941,960,935,934,946,945,954,959,1
930,956,922,948,937,938,933,927,939,954,941,960,958,964,962,950,928,921,957,929,951,964,952,947,962,945,956,977,965,922,913,946,938,965,949,949,947,956,956,955,946,927,943,930,934,941,956,954,960,958,947,962,947,965,933,961,945,954,952,958,943,956,942,948,953,928,945,964,958,945,934,932,950,939,929,866,865,859,866,844,835,809,798,790,758,767,754,747,755,762,743,731,750,726,731,726,743,768,721,739,782,779,777,815,795,809,847,848,850,867,856,949,946,954,937,938,972,948,926,998,954,970,922,964,948,927,929,931,930,927,966,954,967,953,964,923,957,936,959,926,953,981,972,953,925,953,983,937,973,904,938,951,921,966,961,944,967,938,932,945,942,931,950,983,953,949,958,957,940,928,946,919,942,926,965,938,943,960,939,947,934,928,941,984,943,969,963,1
950,935,945,957,955,965,946,945,950,943,946,979,942,963,954,964,929,961,973,965,940,955,976,927,930,964,926,943,950,944,940,931,967,956,962,957,941,935,954,938,967,929,942,966,936,968,936,933,975,961,927,924,953,927,951,951,963,927,943,942,969,946,935,975,928,950,946,965,960,943,917,941,961,951,958,950,970,950,933,954,938,960,962,942,946,968,979,1047,1071,1143,1177,1217,1243,1210,1253,1195,1143,1086,1012,1009,995,986,947,929,941,939,963,952,928,969,955,939,934,925,958,971,940,954,948,944,955,929,952,956,953,954,958,952,957,951,974,932,973,952,944,940,968,950,955,945,972,952,945,960,940,945,958,950,946,931,945,945,950,911,920,943,916,948,950,970,932,954,960,967,948,953,946,922,945,917,957,966,965,937,932,968,916,933,957,957,965,945,934,955,967,948,965,0
953,935,971,947,945,946,968,957,915,936,928,944,934,938,946,952,972,961,955,946,920,948,966,935,956,942,965,955,968,951,959,944,933,975,974,970,934,949,925,947,968,923,941,985,959,968,954,961,960,965,963,951,949,932,947,957,944,944,957,959,927,963,956,947,968,960,974,951,921,951,970,933,946,950,972,922,946,952,947,957,949,943,935,947,956,1010,968,1055,1087,1132,1184,1232,1241,1249,1233,1204,1108,1062,1041,1011,988,970,964,968,945,937,952,950,975,923,939,957,954,950,964,936,948,963,981,954,939,942,936,939,954,938,949,960,944,929,962,926,952,943,962,929,938,949,954,951,941,945,946,952,945,970,932,950,968,976,942,966,975,958,959,918,917,969,927,957,942,948,940,938,932,941,932,971,964,944,937,921,935,952,949,950,951,933,963,963,944,943,919,923,969,958,934,0
949,964,953,953,924,950,944,952,946,946,908,966,944,957,953,934,943,952,959,975,970,958,968,959,963,964,968,955,921,917,938,951,935,931,959,949,938,943,946,954,958,944,928,936,971,957,918,930,929,948,985,946,948,946,953,974,954,932,957,937,941,935,931,925,935,960,950,952,970,951,945,966,954,949,975,929,949,940,931,918,964,939,936,938,973,971,1003,1035,1078,1129,1161,1238,1258,1231,1224,1181,1123,1090,1073,1003,978,1005,942,954,959,937,919,942,956,947,962,925,976,928,921,939,959,937,954,959,945,951,945,928,956,956,959,927,950,959,947,955,945,969,938,948,927,954,948,956,965,946,952,932,953,953,953,945,944,959,948,926,966,953,956,942,924,958,950,950,960,952,942,953,934,960,926,970,940,948,938,939,966,976,951,948,945,938,959,938,952,948,959,949,938,970,925,0
939,939,964,939,947,967,944,967,931,952,961,952,952,947,990,957,941,952,961,945,918,943,942,938,939,950,963,957,971,968,949,941,944,962,949,961,933,955,951,941,960,932,940,937,923,964,946,952,950,953,932,946,951,945,956,957,967,944,993,959,969,960,953,941,945,966,954,949,938,943,967,968,955,951,966,958,964,965,968,943,956,938,954,959,981,978,1017,1044,1090,1140,1177,1239,1243,1244,1232,1170,1128,1081,1033,1021,950,994,911,939,955,944,923,938,962,954,947,931,939,967,945,944,964,931,946,946,950,943,959,943,958,965,915,948,944,943,966,975,944,968,960,931,951,941,975,950,933,941,913,955,960,925,948,957,952,976,964,965,958,979,964,944,956,955,943,956,937,947,958,961,946,968,948,915,961,935,966,948,945,936,935,965,951,932,949,952,937,939,948,938,930,961,922,0
947,957,926,921,947,959,933,947,962,969,958,958,948,945,970,957,961,963,949,983,959,958,952,960,945,964,969,961,950,967,960,950,966,951,959,949,958,957,966,968,957,930,968,959,931,963,962,945,924,954,919,940,943,944,927,961,952,974,955,928,942,938,946,958,969,978,958,942,952,963,938,948,965,949,959,962,948,943,960,932,971,933,930,939,960,985,1026,1046,1092,1119,1208,1223,1244,1268,1216,1205,1125,1068,1027,1000,972,974,958,955,953,939,964,925,966,973,973,956,971,941,967,960,982,947,939,956,947,955,942,944,949,973,937,949,910,964,942,920,958,948,964,953,956,951,959,940,974,938,943,956,938,932,932,917,930,968,942,939,946,942,952,969,962,928,943,954,968,967,956,959,930,933,951,952,960,958,955,975,956,920,970,962,941,973,927,945,953,984,937,949,957,973,941,0
944,979,965,975,928,957,936,938,938,932,961,964,937,937,955,938,938,955,930,962,960,968,945,956,941,925,954,940,940,953,950,945,936,945,955,945,962,963,938,956,923,940,954,933,980,928,945,935,931,959,960,955,950,923,933,955,955,953,943,934,965,944,955,973,951,949,947,955,947,948,976,947,951,916,976,869,858,874,840,846,817,820,823,792,808,799,779,750,737,712,721,742,716,708,750,762,735,752,750,759,763,783,814,801,832,819,844,835,873,880,887,963,949,934,941,974,969,972,947,969,929,966,932,933,922,962,961,943,946,964,932,955,918,956,971,950,952,955,971,956,939,965,958,959,952,928,924,942,918,952,946,957,955,952,969,949,971,973,949,920,962,942,960,941,977,969,951,944,941,934,963,951,951,953,958,941,951,934,946,937,941,942,951,937,951,962,948,1
959,938,956,963,950,946,961,953,945,949,939,952,933,973,968,964,947,967,943,986,958,955,931,946,937,949,914,956,948,947,941,951,941,940,969,952,959,961,949,967,956,976,970,966,963,949,941,980,944,943,949,935,950,960,941,948,938,934,938,937,948,930,949,963,955,949,967,937,965,935,949,940,949,967,930,984,922,941,977,935,953,955,957,925,984,985,1001,1046,1088,1137,1210,1232,1239,1277,1218,1184,1136,1094,1000,1021,1003,947,931,941,939,899,961,966,934,925,950,954,986,953,943,950,957,958,931,937,943,957,959,946,946,958,952,956,955,942,982,960,957,967,935,935,930,940,949,963,931,915,929,958,941,964,961,947,968,946,944,919,964,941,1001,915,970,952,958,974,928,936,935,939,936,955,937,972,931,936,957,958,957,950,958,952,957,919,937,962,946,935,958,966,963,930,933,0
963,952,968,933,918,946,964,974,960,953,930,953,956,955,964,928,968,946,940,943,916,953,918,983,937,929,945,956,958,946,950,956,955,968,959,969,955,969,942,934,964,934,966,955,936,954,960,940,945,964,939,943,953,962,948,951,970,939,972,955,944,951,954,945,948,954,965,943,938,976,916,946,939,916,941,945,969,929,973,943,966,967,962,948,952,986,1000,1034,1091,1139,1211,1236,1253,1243,1215,1201,1132,1062,1032,995,990,951,941,932,940,959,944,956,956,955,955,952,943,951,957,961,921,949,953,950,944,975,966,956,948,952,933,929,933,950,958,936,936,952,930,944,970,970,945,925,928,971,934,957,978,935,946,943,932,942,931,935,943,969,948,951,951,955,941,947,952,932,926,955,952,982,947,936,962,990,970,930,967,965,959,956,928,961,954,980,964,946,922,963,947,929,972,0
941,949,954,946,926,992,940,950,918,951,929,947,945,971,960,943,971,961,963,947,958,918,956,945,941,953,945,950,937,912,956,971,962,946,959,931,938,974,937,959,975,952,945,953,970,960,971,938,986,953,944,950,960,950,962,929,983,930,944,953,949,977,944,916,955,933,961,954,938,954,958,974,963,958,945,973,940,963,934,958,966,948,964,982,993,988,1005,1030,1085,1129,1217,1240,1255,1242,1235,1192,1126,1068,1069,994,962,966,968,962,971,942,972,944,962,959,968,957,942,947,961,961,951,950,952,955,922,948,964,943,969,940,938,960,956,955,937,942,935,966,946,926,951,973,939,958,937,946,949,977,956,947,973,950,964,962,955,961,953,974,971,960,955,955,948,937,940,919,939,954,946,923,965,958,920,967,953,954,955,950,926,945,960,970,931,948,955,949,958,949,943,944,946,0
928,946,947,960,934,959,942,941,969,956,951,955,940,946,939,946,972,941,967,969,952,974,948,961,946,948,945,957,951,958,941,945,964,971,967,946,936,949,927,934,937,954,966,943,955,945,957,973,956,956,945,955,956,949,958,940,961,960,957,946,939,967,945,951,963,941,961,932,946,938,972,943,926,937,939,1066,1121,1110,1116,1142,1144,1191,1184,1232,1242,1248,1252,1274,1297,1306,1295,1282,1302,1277,1291,1300,1292,1278,1292,1280,1234,1200,1174,1222,1205,1144,1141,1128,1108,1099,1049,914,951,948,950,962,939,948,956,965,944,958,962,967,950,931,941,980,971,939,961,948,943,951,954,955,959,970,945,957,945,957,945,934,972,964,982,956,948,947,965,937,959,951,938,942,974,952,945,933,968,942,944,916,943,943,959,944,965,980,977,962,936,952,944,948,955,942,945,939,929,973,933,971,932,933,956,1
955,943,959,966,960,941,963,923,948,951,942,950,948,931,928,966,935,954,930,926,958,936,962,962,940,929,954,940,931,940,935,948,975,936,920,928,969,945,930,952,980,945,957,964,943,976,920,960,939,938,922,961,928,948,954,957,953,947,931,949,949,936,945,949,929,934,920,957,943,942,969,934,959,921,940,1034,999,1036,1009,1031,1062,1072,1096,1083,1086,1096,1111,1102,1135,1124,1151,1149,1145,1137,1149,1128,1104,1098,1110,1129,1116,1070,1089,1064,1051,1030,1032,1037,1043,1031,1013,947,932,958,965,933,953,952,977,927,948,927,963,956,950,939,988,960,944,976,936,977,939,952,974,965,947,976,964,974,939,934,971,944,954,981,944,943,923,951,945,953,933,954,943,932,925,949,947,965,950,934,934,940,930,960,967,958,959,939,945,975,944,950,944,941,966,913,948,940,966,980,950,968,951,952,954,1
968,936,941,949,952,956,939,961,974,953,947,939,962,963,972,974,934,955,938,937,973,933,917,962,960,953,967,953,969,934,962,934,935,949,956,985,936,959,942,959,945,979,991,930,944,959,957,933,957,943,956,965,930,920,936,940,940,936,927,927,948,963,943,976,944,925,945,914,956,962,933,944,948,964,929,963,947,958,947,997,975,966,968,949,962,997,999,1022,1074,1149,1182,1189,1270,1228,1246,1166,1131,1086,1051,1008,982,992,971,955,940,970,938,937,967,943,956,938,941,931,945,937,960,977,946,973,950,940,952,975,972,940,957,943,958,950,962,947,930,942,968,962,968,954,944,942,953,955,936,945,931,949,934,934,966,941,949,937,952,949,964,929,939,931,949,948,924,963,956,969,932,934,942,955,964,955,938,939,936,927,953,934,940,942,927,953,946,935,964,928,958,938,945,0
944,919,930,961,934,931,950,957,933,904,970,934,934,942,941,943,949,938,952,940,940,948,946,950,945,949,940,979,969,922,965,929,926,963,959,928,949,941,945,971,975,979,941,965,949,945,934,935,957,945,915,957,928,931,927,952,942,942,951,943,971,940,948,953,965,963,961,974,939,961,987,928,960,928,975,1022,1037,1017,1053,1062,1080,1071,1072,1089,1083,1097,1102,1142,1120,1126,1145,1152,1120,1145,1142,1164,1144,1109,1133,1099,1102,1093,1087,1086,1028,1031,1037,1014,1020,1032,984,951,938,937,940,974,940,933,955,928,989,956,944,948,956,934,948,969,941,954,963,945,966,968,965,952,952,953,945,940,945,955,914,937,928,958,947,944,937,955,937,948,952,922,943,951,938,957,961,926,963,943,934,934,909,975,943,963,957,945,925,945,961,944,951,938,931,945,973,943,964,963,931,947,949,931,941,1
961,950,970,940,961,935,956,927,949,928,957,935,972,919,963,963,936,938,926,951,962,938,932,984,948,961,950,958,947,929,956,940,965,933,978,974,937,971,943,942,946,970,937,960,977,961,955,945,964,941,922,931,940,958,971,963,951,953,914,941,940,968,956,959,968,965,963,952,941,954,957,936,944,946,947,873,868,839,824,838,815,797,787,800,788,738,752,736,779,712,745,744,723,748,741,740,738,745,754,778,774,795,799,803,794,844,836,842,853,885,872,966,910,949,928,944,948,944,955,937,948,938,941,945,951,959,966,936,944,937,931,951,937,973,954,944,954,967,966,957,942,936,957,986,944,953,946,969,934,926,938,969,937,973,962,962,931,957,970,954,946,945,969,940,930,968,940,928,939,938,932,926,944,947,943,951,947,939,937,951,961,962,917,933,934,965,951,1
956,960,945,941,956,954,960,923,967,940,947,956,940,924,968,947,942,950,958,942,980,960,944,955,968,948,967,946,949,974,953,973,965,962,967,923,946,953,976,958,943,965,963,948,923,956,909,947,962,952,979,958,950,944,954,947,952,984,952,939,936,968,953,955,942,969,972,959,942,971,954,953,930,925,944,858,867,884,848,846,812,816,810,817,768,774,750,754,755,767,749,718,737,757,743,757,740,749,776,780,802,796,779,797,820,843,797,853,875,854,879,977,926,947,936,940,943,963,972,949,951,967,941,962,947,965,954,888,934,976,925,947,958,957,950,946,942,985,963,963,936,973,916,951,926,948,964,939,938,956,939,968,936,936,914,935,957,952,955,950,942,971,915,928,930,923,934,956,942,944,955,959,970,956,955,965,959,965,948,930,948,957,970,943,943,953,980,1
937,932,918,939,935,948,960,940,977,941,930,965,950,930,959,968,947,947,969,945,971,956,962,927,950,943,959,941,964,955,949,934,955,929,967,935,950,977,953,964,957,963,949,920,950,961,952,960,925,958,959,972,962,950,991,941,963,973,969,946,939,964,947,943,956,950,969,965,933,965,954,974,949,922,951,978,975,963,959,965,951,942,926,936,972,1002,1015,1056,1056,1166,1189,1212,1248,1230,1184,1192,1128,1056,1027,1025,973,970,953,934,953,953,942,933,972,951,917,947,962,940,952,995,945,937,960,941,938,937,934,945,949,947,947,937,940,949,951,956,958,942,974,954,954,941,941,958,946,945,947,951,974,928,976,944,954,952,952,972,948,941,930,913,921,956,973,955,930,935,915,950,944,946,955,958,942,968,960,954,971,947,939,915,960,963,966,965,956,964,960,944,936,931,972,0
953,970,956,971,951,934,921,932,959,930,958,949,955,953,987,964,974,925,948,960,956,948,943,954,966,925,980,965,922,931,943,964,929,963,939,966,949,964,961,938,951,925,963,938,965,964,952,938,950,943,949,972,931,948,973,957,949,952,934,935,957,966,936,955,945,964,963,944,972,939,940,927,941,943,953,1069,1077,1098,1135,1144,1128,1182,1177,1217,1211,1210,1221,1298,1295,1287,1300,1287,1311,1297,1357,1298,1306,1263,1275,1263,1248,1225,1209,1189,1199,1183,1153,1133,1111,1085,1069,979,947,939,952,958,943,941,930,931,935,934,973,938,938,935,951,934,955,961,973,951,950,955,968,956,957,948,956,941,935,931,947,931,961,963,968,926,935,943,970,930,927,948,958,953,949,970,924,951,965,939,955,926,971,956,929,939,960,986,956,955,933,960,968,959,944,960,953,973,916,976,932,978,936,944,940,1
948,937,965,966,973,949,967,949,962,966,939,939,914,948,968,950,936,964,957,971,967,950,968,948,931,969,948,924,924,950,951,984,947,952,953,960,942,954,955,935,951,962,964,956,945,961,971,937,933,976,939,937,915,931,953,963,929,954,943,976,965,951,951,949,948,973,964,911,928,974,974,984,914,926,936,915,924,952,969,957,953,928,930,933,967,973,996,1037,1090,1128,1189,1230,1261,1256,1228,1203,1161,1110,1054,1012,938,975,962,946,974,942,973,936,940,923,975,950,944,942,944,932,937,949,940,967,971,944,956,982,931,948,955,964,934,964,929,943,967,926,960,937,946,943,963,959,958,925,968,954,981,940,936,948,940,939,967,971,917,920,938,944,928,948,956,964,942,951,970,967,993,970,963,950,965,928,936,944,952,968,967,943,911,952,956,940,976,928,949,938,922,968,968,0
982,934,938,952,950,957,968,943,941,962,943,947,978,954,961,941,942,960,931,928,957,922,968,953,960,955,960,954,954,935,933,946,971,944,944,963,935,939,957,969,970,947,951,942,924,952,949,931,968,934,948,943,953,961,947,921,946,931,935,944,947,952,966,921,957,939,952,970,988,959,957,931,935,923,955,935,950,931,963,943,945,948,966,928,978,1012,1025,1052,1109,1136,1188,1226,1244,1233,1216,1189,1106,1087,1022,1023,962,964,957,950,943,943,938,964,925,952,956,936,959,942,959,950,939,947,976,968,951,938,938,942,953,952,941,949,947,927,948,953,955,964,945,934,938,936,959,951,968,955,942,944,976,958,933,932,961,972,962,947,965,942,942,955,938,961,947,939,955,954,958,928,930,947,944,952,934,948,967,965,968,953,934,950,943,932,952,943,942,965,953,956,907,930,934,0
948,922,966,942,927,960,944,947,959,963,949,936,955,940,975,944,948,965,933,951,958,956,948,925,971,947,956,973,948,923,937,972,972,946,957,966,960,962,952,927,927,956,958,952,942,933,933,939,952,939,926,973,927,958,975,941,943,954,934,935,947,961,955,975,932,937,952,958,965,953,963,960,926,948,938,889,861,884,882,816,833,791,783,762,811,774,758,749,757,726,748,719,748,740,750,737,762,742,737,782,775,791,793,791,798,831,836,842,844,883,860,967,943,955,963,965,938,956,983,919,932,934,956,949,957,931,949,956,952,961,947,966,930,932,958,951,957,943,928,940,924,950,963,940,938,931,922,967,932,931,937,937,979,956,932,946,933,919,949,954,944,953,951,951,969,950,954,954,924,937,981,955,945,944,965,934,972,967,957,951,935,951,962,930,953,961,960,1
939,967,966,938,968,946,952,972,953,935,928,950,923,943,943,963,955,946,905,946,935,958,965,959,937,950,960,936,965,945,948,970,930,937,945,941,971,961,922,971,966,944,931,954,956,972,952,948,920,941,957,953,952,933,945,942,942,946,970,951,935,931,974,932,965,992,930,950,958,926,951,964,960,901,981,945,954,963,919,959,953,949,949,984,987,1000,990,1038,1088,1135,1197,1216,1257,1251,1225,1192,1124,1101,1049,1020,969,972,942,972,946,956,959,943,913,947,923,924,946,945,964,942,964,943,951,960,964,930,929,949,966,942,919,923,979,956,943,963,942,956,937,924,943,958,968,945,950,961,939,939,918,951,961,925,926,979,978,925,936,939,969,962,940,953,964,969,966,942,956,945,969,946,930,948,953,945,974,934,945,956,969,937,972,932,956,970,940,943,949,965,927,969,942,0
975,957,943,962,948,971,933,944,930,939,957,942,948,958,968,942,942,974,934,953,949,941,936,977,957,945,947,942,936,933,944,953,932,959,940,987,960,956,976,967,941,940,957,972,954,945,936,930,973,949,970,956,961,958,968,950,946,969,929,927,940,942,944,967,954,930,981,956,983,931,926,937,943,923,958,957,954,967,943,935,959,968,945,953,1002,987,1029,1069,1070,1131,1161,1215,1221,1252,1240,1197,1141,1102,1028,1011,977,964,933,961,951,937,951,949,963,960,952,946,950,949,944,951,947,944,968,943,928,982,954,946,928,955,926,948,922,942,931,960,942,956,941,943,966,964,969,955,946,936,953,953,942,931,957,952,934,930,950,968,957,966,932,941,951,979,956,955,960,960,939,950,943,955,943,954,956,935,937,949,930,935,942,941,951,953,962,969,958,952,970,971,981,968,949,0
948,985,948,958,951,958,952,930,934,954,969,966,931,952,959,967,927,963,967,945,942,934,948,956,961,961,948,962,945,914,970,927,975,967,946,945,962,964,939,960,938,953,952,947,954,941,946,953,949,942,950,961,930,985,955,923,953,949,970,945,942,955,958,945,943,948,947,924,953,951,938,955,930,957,953,1085,1109,1090,1122,1160,1142,1192,1189,1234,1221,1227,1248,1311,1300,1275,1304,1308,1328,1334,1316,1294,1286,1284,1276,1278,1243,1259,1199,1181,1183,1148,1129,1124,1115,1079,1058,965,955,941,951,948,936,958,985,951,955,964,929,944,964,964,971,956,970,953,958,933,950,975,964,937,955,969,948,946,954,958,932,949,935,950,957,968,952,981,971,946,939,942,929,952,956,935,942,949,980,931,956,971,950,937,943,942,961,972,951,957,942,951,951,958,988,954,931,937,968,959,952,951,938,971,949,1
959,962,923,938,949,930,977,945,990,953,967,951,935,917,966,944,952,962,956,944,947,920,950,986,960,964,960,967,947,935,942,925,923,970,949,968,959,960,935,941,929,952,938,964,956,933,958,926,934,939,951,956,959,926,956,957,951,959,992,959,930,918,964,954,936,971,951,977,966,939,969,948,956,949,948,881,856,846,848,851,814,795,787,770,786,803,753,759,770,724,730,740,707,738,765,731,757,753,724,761,782,782,797,803,797,833,862,844,864,856,877,937,966,957,931,961,949,957,934,951,940,954,935,972,950,944,966,967,962,913,962,931,947,963,927,940,949,937,942,974,942,938,943,958,957,937,954,914,947,961,963,941,951,946,936,965,979,940,951,949,938,938,936,947,953,955,953,943,951,987,951,961,934,937,969,938,940,953,941,928,917,935,930,947,949,922,947,1
949,948,950,938,951,959,926,905,958,925,979,946,947,960,957,945,974,940,940,932,941,962,944,928,943,977,945,940,927,945,960,959,966,942,945,957,947,934,968,958,938,970,932,966,968,986,928,948,934,914,943,958,970,949,950,942,940,963,944,960,932,946,950,946,951,947,964,947,935,941,928,936,961,971,925,1002,1041,1025,1046,1060,1050,1056,1077,1087,1095,1113,1089,1105,1123,1132,1125,1114,1156,1132,1137,1119,1133,1138,1077,1100,1109,1075,1069,1057,1078,1061,1051,1060,1055,1017,1003,955,950,944,929,978,955,948,940,956,916,940,954,932,941,955,944,954,944,948,947,960,968,959,956,953,939,942,944,929,924,948,951,947,956,966,953,938,976,936,958,956,946,948,935,941,939,953,933,933,950,928,945,927,939,926,934,930,939,943,936,955,956,945,975,938,953,963,963,952,924,954,950,948,955,964,936,1
943,948,906,948,942,950,943,935,943,949,949,948,960,965,955,951,950,942,934,943,950,929,969,928,970,932,955,949,968,947,957,973,928,967,950,944,951,944,943,959,941,923,932,934,975,948,978,963,950,931,957,937,942,942,960,929,942,967,941,939,956,935,954,918,961,935,962,932,948,955,958,975,938,952,946,871,889,866,850,806,836,821,782,781,777,779,769,738,752,737,736,768,706,720,734,764,730,760,751,762,765,789,759,845,823,808,847,826,849,844,848,941,941,958,935,964,965,939,946,946,948,934,944,983,936,966,963,959,954,952,920,936,952,944,963,938,953,941,950,957,960,951,963,943,966,905,951,930,981,989,936,943,912,962,946,920,954,940,948,931,976,975,970,949,934,987,944,958,937,936,954,951,939,956,946,967,943,940,959,918,943,961,980,941,940,942,934,1
946,957,938,973,935,945,976,932,953,949,947,951,938,940,958,959,971,937,944,933,919,938,970,948,945,969,966,979,938,959,942,939,943,956,923,953,967,951,941,950,950,907,949,935,938,962,928,954,964,920,936,959,927,937,946,919,948,962,930,939,933,932,936,960,953,966,938,953,984,970,950,919,966,948,942,870,874,860,855,820,837,828,798,792,786,789,774,725,719,707,720,749,731,736,725,760,745,759,744,780,772,750,765,831,822,824,836,855,858,859,883,946,934,960,936,959,952,941,976,959,975,942,931,928,935,970,944,949,954,969,939,963,955,935,941,940,949,975,947,950,946,956,965,931,960,976,962,943,969,944,944,948,970,961,948,910,959,938,977,963,948,919,924,975,961,944,927,943,949,945,942,924,965,958,962,964,959,960,987,942,953,943,953,957,963,948,943,1
938,929,945,925,941,963,955,971,942,948,926,935,964,941,951,953,943,948,937,943,938,966,956,945,921,964,950,911,931,955,966,962,984,943,938,969,944,930,923,962,936,955,951,943,927,932,943,962,927,940,946,975,948,943,941,911,930,943,920,974,918,939,959,928,942,932,941,951,937,932,954,971,968,922,966,945,950,927,966,956,932,948,981,936,982,979,987,1025,1102,1135,1164,1242,1236,1280,1264,1183,1106,1093,1002,996,975,970,953,955,952,940,949,945,953,940,935,947,957,963,948,949,942,932,928,951,970,982,957,972,965,932,975,938,948,943,950,939,933,958,943,951,949,947,962,931,933,957,937,949,954,915,939,973,947,950,952,964,955,936,937,936,949,940,940,964,928,949,974,983,938,915,933,945,953,950,945,962,946,948,976,928,957,945,937,979,955,929,983,954,954,960,936,0
945,975,955,942,976,978,957,935,967,940,949,955,948,966,939,958,914,948,951,951,958,956,949,975,934,954,954,957,950,947,937,954,970,934,937,973,971,966,953,945,949,951,961,917,946,939,938,944,960,968,926,944,941,962,965,947,943,941,943,945,949,955,943,947,936,943,957,940,962,930,966,933,970,955,932,1059,1077,1109,1128,1174,1157,1172,1219,1241,1211,1237,1263,1267,1298,1303,1334,1301,1318,1300,1309,1308,1280,1269,1271,1273,1244,1229,1214,1192,1184,1185,1142,1131,1099,1093,1054,947,950,931,945,935,948,950,911,938,938,932,942,927,942,937,950,936,958,955,957,940,907,940,974,960,926,953,939,950,975,936,959,957,963,954,945,932,943,945,944,943,959,981,939,943,960,948,953,958,947,977,949,947,931,975,950,961,935,948,943,981,943,974,958,962,925,948,932,980,959,962,941,927,951,953,928,1
944,948,954,971,944,927,934,965,940,938,945,961,951,948,943,938,954,956,936,939,960,958,912,933,941,941,951,955,973,958,940,948,945,951,983,949,894,981,966,959,934,958,972,966,950,937,941,945,954,977,951,930,977,978,962,942,979,938,952,947,948,971,942,937,942,954,945,955,948,982,930,960,929,964,980,924,939,935,983,912,942,931,936,955,958,969,1041,1045,1073,1127,1188,1196,1263,1246,1238,1189,1127,1093,1047,1009,984,965,949,938,957,949,931,947,952,973,954,961,959,940,912,969,972,954,960,945,941,978,932,945,932,961,953,949,973,948,951,948,962,959,935,975,948,954,929,941,967,958,948,954,928,957,952,946,944,946,947,970,971,949,987,948,947,967,955,961,959,949,955,942,949,939,936,954,947,932,957,958,960,938,955,965,956,951,950,970,980,978,947,935,941,948,964,0
939,958,971,969,943,947,957,973,949,935,971,932,937,952,926,964,934,950,923,944,926,945,915,920,959,956,971,946,955,930,923,942,930,941,939,942,980,935,957,944,961,947,931,953,963,958,940,965,937,960,950,940,958,957,976,927,960,926,942,942,951,961,922,960,966,965,933,958,965,947,951,957,929,953,937,1018,1009,1024,1033,1028,1084,1068,1047,1090,1075,1103,1094,1104,1094,1127,1127,1120,1143,1127,1156,1110,1108,1098,1100,1099,1105,1100,1105,1060,1058,1078,1056,1018,1020,1015,1022,944,947,956,940,937,950,948,930,962,971,949,926,934,948,941,956,927,940,962,959,945,943,927,953,979,945,962,958,955,951,945,949,954,967,942,963,951,966,973,950,961,954,959,929,957,954,944,951,965,927,946,915,934,938,992,969,952,941,977,958,927,953,943,948,975,938,956,951,946,949,942,975,936,953,954,929,1
968,958,933,967,934,916,960,956,966,936,955,971,935,931,944,937,967,927,925,931,945,950,952,945,940,964,957,942,962,958,980,979,969,954,943,939,960,920,951,941,964,944,970,960,943,951,938,960,947,954,957,941,945,972,943,933,969,957,940,941,962,980,978,933,938,936,952,922,945,962,951,938,963,954,947,875,845,830,838,842,824,828,791,797,779,751,746,739,759,742,728,731,730,731,741,737,754,720,729,766,765,778,808,815,821,827,855,854,885,868,879,951,929,959,948,939,949,928,986,958,944,938,962,953,936,963,934,963,951,954,945,966,937,940,960,946,937,939,934,952,961,941,952,938,944,957,954,945,977,926,952,940,929,929,947,960,974,942,925,949,945,928,937,957,950,974,944,933,932,967,927,975,959,931,970,946,953,942,943,952,967,973,948,946,984,959,954,1
962,942,938,986,948,943,951,973,939,951,944,936,943,937,968,948,980,922,932,977,979,935,926,919,971,919,931,949,925,962,956,950,947,953,913,924,950,948,940,983,948,936,962,965,961,941,955,948,966,974,919,986,926,951,948,940,953,947,964,955,927,942,963,953,932,962,935,953,951,939,947,954,979,955,964,940,955,941,988,934,951,934,954,943,967,987,994,1056,1066,1140,1189,1234,1250,1264,1241,1203,1129,1088,1038,1031,973,961,935,955,946,954,938,950,960,950,967,956,933,949,953,992,944,943,949,961,944,925,947,935,926,967,961,970,986,941,928,933,947,963,928,963,947,949,958,952,971,947,951,924,952,952,958,963,949,962,940,955,940,934,962,968,947,957,976,927,930,955,931,942,960,935,960,976,953,955,957,957,951,935,966,955,979,945,974,953,950,947,963,926,966,965,947,0
960,921,950,917,946,980,948,961,956,951,947,951,960,952,953,939,930,935,945,946,932,970,941,931,951,926,978,953,949,958,954,950,947,940,953,947,933,946,971,957,964,943,956,946,951,972,971,953,939,951,944,945,938,925,945,969,955,940,967,958,963,943,960,962,935,975,956,943,967,944,905,955,932,947,964,963,938,937,947,941,960,963,951,949,975,984,1027,1064,1099,1135,1176,1211,1261,1269,1214,1216,1117,1075,1047,1014,970,951,923,936,957,934,951,935,942,952,941,950,935,963,949,954,929,946,952,962,913,946,961,939,935,958,948,943,950,955,936,968,942,950,969,940,950,953,970,955,951,949,940,925,996,963,939,949,949,907,923,935,949,952,955,944,926,916,939,976,934,946,949,946,948,958,949,963,967,960,958,945,971,933,937,963,939,954,975,963,960,957,946,915,966,954,950,0
939,981,949,931,964,937,940,936,955,949,937,961,977,953,969,976,978,927,962,933,936,937,979,944,934,951,943,927,960,952,959,948,973,918,945,971,962,931,948,935,944,940,933,922,943,947,946,940,933,973,952,933,940,975,967,951,966,959,977,951,954,927,946,942,949,944,965,950,959,964,951,948,953,924,962,1054,1084,1115,1140,1146,1146,1175,1196,1223,1230,1247,1253,1269,1273,1288,1301,1301,1313,1315,1317,1312,1309,1277,1284,1275,1241,1234,1203,1196,1179,1172,1142,1112,1121,1082,1056,946,967,963,941,914,955,977,957,944,934,929,936,918,952,945,933,959,933,925,970,958,955,969,957,959,981,961,948,937,947,934,940,945,944,955,955,948,960,940,949,983,951,973,968,951,956,1005,951,939,941,946,934,946,942,920,941,970,947,966,952,956,960,953,960,959,922,957,982,938,953,944,937,953,933,919,947,1
926,949,963,951,932,941,971,953,940,950,960,918,941,951,950,964,950,955,944,940,943,923,928,959,926,959,931,921,964,943,949,966,934,951,939,952,948,970,982,947,949,949,937,931,933,955,951,926,943,943,934,941,943,974,951,951,927,943,938,941,942,940,932,947,948,948,950,921,935,955,954,955,959,955,930,982,955,978,952,918,938,952,970,948,965,980,1015,1036,1088,1132,1176,1253,1253,1246,1231,1163,1157,1113,1074,1008,980,951,932,940,969,969,935,933,941,955,973,950,975,933,976,922,960,958,938,953,920,925,967,951,965,951,967,934,972,957,938,947,960,968,926,940,942,938,959,953,941,929,938,967,949,957,950,933,935,950,945,946,975,964,929,964,965,974,972,930,951,967,939,923,933,941,929,958,965,960,986,950,952,939,925,958,949,945,947,933,943,922,938,960,959,954,946,0
930,952,959,939,955,949,980,966,954,930,955,934,932,936,896,958,948,966,934,947,958,936,975,980,931,964,936,935,948,971,949,959,935,956,932,959,943,941,955,922,956,950,962,971,939,934,945,954,927,954,973,950,945,965,929,933,957,974,935,953,959,946,947,960,959,960,982,961,964,957,947,928,942,940,934,894,875,866,840,820,812,786,803,785,753,750,748,737,757,746,737,738,755,715,731,745,741,744,736,788,752,767,809,818,844,797,839,853,844,869,899,973,959,977,946,933,944,959,950,943,964,962,935,981,982,964,932,953,965,925,960,957,949,952,953,947,957,952,964,930,916,954,964,936,932,937,959,956,970,955,943,919,931,943,922,946,917,931,961,948,972,951,964,939,944,956,938,948,953,926,945,932,937,960,936,944,942,935,958,952,941,937,966,954,950,979,962,1
960,935,948,948,976,953,975,938,937,941,940,950,925,954,919,945,935,943,936,950,953,936,949,943,943,942,956,946,939,934,948,934,929,967,938,923,959,960,933,947,963,953,957,914,955,940,947,955,965,970,941,932,971,930,941,934,934,930,955,916,960,943,942,949,922,974,943,945,953,942,958,972,937,933,937,935,950,955,956,935,941,946,944,974,978,981,1030,1027,1069,1122,1202,1232,1239,1229,1222,1198,1144,1088,1016,1010,977,971,934,924,938,941,956,968,966,949,953,933,970,983,963,958,957,964,954,952,977,941,955,957,942,932,950,936,951,960,936,955,940,950,963,938,944,936,942,977,959,962,946,974,938,963,997,940,934,961,964,933,922,943,943,952,944,945,942,943,953,939,959,916,916,949,956,952,957,948,947,949,942,954,950,938,922,957,955,947,947,960,947,964,933,965,965,0
971,945,943,950,937,931,933,974,955,952,922,968,953,960,899,932,962,946,980,957,951,936,955,954,957,956,934,911,939,935,952,961,920,923,948,969,965,941,954,945,957,953,961,951,971,947,951,924,940,958,933,940,962,930,953,964,966,930,939,956,928,938,951,948,957,938,949,953,958,938,946,965,940,963,930,923,958,960,931,940,960,933,949,964,962,975,1013,1042,1092,1124,1189,1229,1247,1253,1227,1176,1149,1083,1030,1018,1013,960,935,940,957,946,939,922,958,963,966,938,948,939,967,972,947,939,959,968,973,951,936,936,936,970,963,956,936,927,974,953,940,987,952,927,952,945,962,928,949,948,967,933,971,939,940,948,939,929,933,953,958,973,956,958,952,954,935,935,977,931,939,966,956,959,955,969,967,979,961,955,960,936,916,945,942,961,965,945,958,919,961,936,952,939,913,0
945,960,959,977,927,949,951,948,969,942,940,929,965,928,971,930,936,950,930,978,924,957,938,951,965,954,945,939,944,967,946,914,967,939,945,940,959,952,991,948,959,933,947,924,970,966,957,945,940,954,972,937,963,977,942,951,944,977,953,957,941,959,933,973,941,965,957,964,967,964,946,956,953,964,954,981,944,956,973,961,953,950,962,937,977,998,1027,1053,1097,1139,1180,1228,1245,1232,1218,1174,1165,1096,1043,1009,976,976,958,931,941,931,956,950,944,934,958,966,969,984,946,966,936,961,943,953,953,952,955,957,949,935,932,937,950,936,959,937,958,929,975,956,947,936,934,956,945,924,957,933,948,947,930,988,928,928,946,934,970,965,924,934,947,931,953,942,965,943,920,951,946,971,926,908,948,966,954,959,950,911,985,938,955,964,962,939,954,950,956,952,968,952,959,0
941,949,934,951,956,971,943,944,937,949,943,965,964,973,947,957,939,945,954,916,933,970,950,949,953,963,956,938,966,927,941,956,975,961,948,925,943,943,953,940,929,946,935,979,988,935,936,939,953,964,930,969,964,945,958,946,940,990,950,965,941,985,979,952,942,967,946,971,938,950,946,940,952,953,950,908,954,938,924,946,943,946,959,941,970,995,1047,1042,1103,1142,1161,1230,1251,1250,1223,1150,1122,1094,1041,995,1005,975,979,951,951,923,945,953,939,962,965,953,951,953,942,932,951,979,926,949,956,942,950,949,941,958,970,928,956,954,939,935,950,951,942,951,987,929,946,969,956,947,911,948,947,955,938,970,938,955,961,927,954,952,975,956,947,954,954,942,931,950,966,955,948,964,944,949,951,950,959,947,961,958,940,947,956,924,955,956,961,944,931,955,957,940,984,0
948,953,973,929,963,923,952,958,949,957,948,966,948,948,952,962,928,968,938,969,958,961,949,940,945,967,953,968,948,933,915,930,934,941,919,978,950,952,954,949,941,935,953,940,951,948,937,966,959,923,959,941,960,949,951,957,935,959,923,948,978,961,949,959,938,962,942,975,967,938,967,954,952,934,953,997,942,950,952,956,924,953,959,952,963,1030,1019,1053,1091,1139,1153,1232,1251,1231,1207,1193,1148,1072,1044,1049,972,957,964,937,969,945,930,941,920,962,943,960,934,953,957,963,959,954,967,924,956,965,919,934,929,953,964,946,951,976,956,950,938,944,941,935,965,957,958,960,934,957,931,938,977,919,982,970,929,963,963,951,957,924,964,939,944,969,925,943,962,936,913,961,950,966,957,986,973,972,940,947,972,940,952,932,944,954,966,939,946,920,979,955,961,959,935,0
945,935,952,939,933,945,936,945,916,958,961,958,938,930,939,955,959,957,939,965,966,945,953,942,963,965,932,986,947,953,977,944,970,946,956,962,972,959,940,956,964,971,936,916,932,955,955,984,944,942,975,955,963,947,948,960,983,970,940,949,911,975,961,958,952,947,955,933,944,950,936,963,943,953,926,994,1051,1020,1045,1017,1053,1054,1094,1083,1086,1084,1135,1084,1131,1139,1133,1109,1121,1124,1122,1109,1119,1116,1105,1113,1095,1107,1086,1086,1075,1057,1048,1030,1043,1000,1004,957,935,926,953,960,955,949,958,958,959,947,971,940,942,954,921,961,943,923,908,942,972,946,925,964,955,961,943,973,950,947,960,948,950,950,964,949,945,952,944,958,987,953,948,950,930,936,944,973,949,961,956,946,933,968,952,961,954,952,958,988,925,938,958,951,943,980,979,971,933,948,907,923,963,960,953,1
945,960,960,960,943,966,930,948,969,965,953,938,932,939,949,943,947,937,953,954,958,961,922,975,936,941,949,931,964,965,936,969,953,944,929,975,961,918,915,957,965,962,924,932,948,975,972,959,938,961,929,939,937,960,972,965,934,943,943,955,941,968,962,939,932,931,968,942,953,949,940,945,957,935,924,947,934,947,960,972,947,934,959,943,967,967,1033,1071,1080,1163,1192,1224,1236,1245,1232,1205,1146,1067,1026,1002,961,960,930,939,958,941,948,969,958,956,959,939,910,937,946,918,970,978,958,945,943,954,925,945,975,923,957,962,941,974,947,961,976,943,922,967,940,916,939,942,947,952,970,933,933,955,981,940,958,921,961,964,944,958,961,969,943,945,934,955,955,949,958,943,934,968,971,947,924,939,974,973,937,943,896,948,948,953,932,946,955,928,934,939,966,933,969,0
958,976,963,939,923,931,956,951,943,946,916,961,952,939,953,956,956,937,947,947,937,951,951,963,940,922,921,956,975,984,946,949,955,931,977,946,938,947,946,975,943,917,964,941,946,954,945,961,951,946,949,948,960,941,952,951,949,928,943,968,960,952,947,938,947,938,943,928,952,977,941,943,950,924,950,965,969,966,950,957,945,937,931,957,971,964,982,1049,1069,1140,1176,1245,1236,1256,1255,1183,1133,1079,1033,1003,1010,965,963,968,945,926,973,930,973,938,969,941,984,931,938,954,959,943,953,948,961,913,912,935,934,941,955,962,961,957,963,937,959,926,941,953,945,960,950,939,950,954,927,918,932,948,948,956,941,940,958,956,957,909,947,948,955,951,962,935,979,952,947,928,944,936,942,944,973,944,966,943,927,922,930,977,973,938,924,947,941,931,960,948,947,949,971,0
993,947,933,936,962,977,969,950,945,965,951,938,953,949,953,932,963,940,969,937,932,961,955,965,954,945,929,938,944,966,935,976,948,927,952,987,935,950,955,968,947,964,918,958,922,949,919,945,982,960,955,952,952,944,958,940,970,961,960,937,949,949,952,928,927,940,942,950,956,956,952,936,953,944,943,885,871,853,818,837,823,813,794,797,771,773,815,770,747,746,756,752,749,734,753,747,756,745,734,777,749,754,744,785,821,820,835,852,862,877,876,960,937,965,955,922,967,944,941,931,905,954,963,976,990,944,940,966,940,932,959,946,952,938,975,963,941,930,968,957,948,951,924,923,941,954,975,957,976,963,972,952,951,940,967,936,942,943,941,945,958,932,934,951,949,945,941,952,956,953,951,962,955,930,937,955,952,946,929,952,951,963,929,926,948,936,968,1
942,940,958,939,929,954,944,940,931,919,964,927,970,946,935,930,969,951,944,919,934,974,973,950,956,964,959,972,952,958,958,945,927,959,956,949,941,957,963,952,933,970,941,943,960,961,974,956,965,942,967,957,986,997,934,962,960,948,969,932,968,967,954,945,944,947,964,943,969,926,937,957,948,946,935,909,966,955,957,977,964,968,961,957,952,975,1012,1054,1087,1120,1200,1238,1222,1233,1221,1184,1118,1093,1058,1008,978,974,916,964,932,938,948,970,940,953,948,937,976,913,952,957,945,939,964,985,960,978,928,919,949,977,945,988,954,955,951,945,965,946,928,953,950,951,963,934,958,929,958,962,945,910,953,968,945,960,961,969,953,956,959,959,946,940,964,953,938,948,958,944,921,929,956,957,947,935,966,959,960,960,927,965,907,973,938,975,954,945,940,969,959,959,929,0
963,977,942,955,948,936,955,925,952,957,959,946,958,954,958,923,952,933,951,928,947,938,958,964,964,963,935,937,973,963,930,947,921,937,961,945,945,965,945,956,945,942,919,960,946,928,946,937,958,954,988,945,952,998,951,931,967,955,928,936,923,955,973,949,929,966,942,949,965,972,939,945,966,945,976,1000,1032,1046,1054,1037,1045,1068,1074,1102,1078,1130,1085,1110,1113,1124,1104,1113,1120,1113,1113,1141,1138,1137,1113,1089,1110,1110,1079,1076,1067,1056,1023,1006,1026,1035,1003,951,972,975,931,914,936,959,955,964,948,975,942,943,975,945,939,933,966,968,948,936,935,965,983,962,938,941,914,960,959,956,941,962,957,936,940,961,960,938,946,948,940,952,959,972,955,928,980,954,944,933,970,952,936,943,928,967,936,935,954,963,974,905,939,936,955,942,937,941,960,960,959,938,943,943,935,1
947,932,933,950,946,953,958,933,954,932,973,956,942,942,960,955,949,933,941,968,930,941,931,910,934,922,967,949,958,947,944,988,952,940,962,982,958,959,956,958,934,964,933,960,930,940,961,958,961,914,934,953,959,959,951,956,956,966,949,932,912,915,936,966,957,928,956,935,960,956,964,958,943,920,948,984,1042,1032,1023,1080,1052,1069,1061,1104,1098,1106,1099,1116,1129,1142,1117,1129,1149,1134,1113,1140,1123,1110,1103,1118,1086,1088,1118,1068,1067,1042,1015,1034,1033,1024,1012,945,940,944,958,948,907,967,920,964,957,954,960,942,964,976,926,968,936,968,931,930,935,937,939,939,960,941,954,943,949,946,956,965,963,971,962,962,919,927,959,951,947,944,957,932,989,938,982,963,921,965,961,939,960,960,936,963,960,936,973,964,963,938,978,934,967,957,972,957,945,931,942,966,948,941,954,1
959,925,969,944,957,960,934,945,939,982,979,946,944,964,945,957,941,956,968,943,964,956,960,959,930,925,928,942,966,951,926,949,959,952,944,940,929,949,941,954,951,960,957,961,927,944,943,960,941,965,934,953,949,939,945,936,964,966,948,933,967,969,963,936,945,913,952,954,974,939,945,965,953,944,940,876,857,862,866,833,804,816,792,793,765,766,779,743,759,737,728,737,738,713,752,729,744,745,754,786,761,764,779,813,818,813,830,833,858,854,881,984,954,912,964,939,910,940,951,977,978,931,938,949,962,946,930,926,937,931,947,946,935,940,923,917,979,953,952,936,949,955,963,954,935,958,937,934,974,960,959,954,921,937,972,919,949,942,943,929,960,933,956,952,948,946,936,958,963,957,947,979,955,936,947,948,940,959,926,945,954,936,938,916,944,980,969,1
931,936,969,949,937,956,951,974,956,935,946,950,947,987,946,930,931,965,935,979,961,925,957,961,955,949,946,927,963,948,952,938,952,926,953,942,947,923,932,948,959,945,938,945,944,972,951,945,971,938,954,948,946,931,922,968,935,958,979,962,958,955,959,942,947,947,952,971,972,933,952,938,940,944,936,896,855,843,851,852,855,814,775,785,767,762,794,754,736,769,746,752,718,739,740,752,732,742,755,764,746,778,805,790,844,822,807,852,871,879,870,961,944,948,966,950,930,959,966,917,935,947,956,946,988,945,949,944,953,958,947,957,963,945,959,920,943,967,957,967,982,937,954,943,990,926,966,955,970,961,965,922,967,983,948,943,939,958,972,927,935,957,950,943,953,941,945,947,950,930,968,952,972,956,948,951,959,940,923,947,937,958,937,923,947,964,945,1
968,977,962,948,934,940,934,964,962,952,959,969,925,940,958,949,921,954,946,963,949,950,943,933,958,930,929,934,961,951,967,918,953,923,942,942,954,938,923,946,978,961,941,954,951,936,940,937,974,954,950,919,955,966,959,961,928,949,955,943,971,942,941,956,929,937,948,956,943,943,935,946,977,968,967,1019,1013,1039,1033,1071,1060,1047,1071,1097,1102,1069,1115,1116,1104,1156,1121,1129,1143,1140,1129,1105,1122,1131,1131,1098,1077,1091,1098,1089,1043,1044,1019,1049,1030,1028,1015,942,955,938,953,942,963,959,957,949,947,951,954,936,962,942,944,942,949,952,945,944,929,941,972,953,938,974,966,962,941,965,962,960,939,923,978,954,970,936,974,955,944,948,974,938,952,943,924,969,928,958,915,956,975,951,926,937,974,956,947,958,940,919,935,968,975,942,924,973,952,957,947,969,945,925,955,1
932,942,951,956,933,950,951,950,954,959,953,947,950,954,922,952,934,960,925,962,938,938,942,945,941,960,931,951,962,937,941,935,932,937,955,933,966,953,950,948,943,965,941,943,959,932,953,917,923,956,948,961,952,967,966,978,969,936,967,946,947,966,937,961,956,936,967,940,932,935,943,950,943,943,972,948,948,978,930,925,965,938,944,912,936,1007,1029,1030,1064,1129,1186,1200,1219,1251,1212,1171,1149,1116,1046,998,996,996,947,961,949,970,940,936,930,950,964,957,959,951,918,953,925,941,916,958,942,964,972,935,933,965,948,938,957,970,946,950,944,901,937,954,937,947,944,953,931,952,951,957,942,952,933,967,942,958,911,907,941,948,939,937,944,955,964,945,934,935,949,947,958,952,960,962,922,972,922,923,951,959,964,961,932,954,949,955,932,941,944,950,944,927,972,0
951,958,936,944,974,960,946,940,949,969,923,963,949,943,959,979,958,943,920,934,927,956,953,898,948,951,916,946,947,956,910,970,944,918,947,975,940,928,943,929,954,956,951,938,974,946,941,948,964,958,937,960,955,922,967,949,957,954,934,946,947,957,958,951,955,936,940,933,911,954,953,950,956,955,961,877,889,858,846,817,819,814,812,796,783,768,751,754,750,755,733,751,737,723,732,712,775,752,773,749,751,793,807,810,810,820,840,831,866,867,888,952,976,964,970,956,944,949,978,936,942,959,968,944,973,937,930,953,970,948,962,940,944,957,963,979,960,944,949,943,958,943,917,960,953,932,951,966,959,939,954,954,946,967,943,929,941,939,938,961,933,930,935,957,922,963,933,936,925,929,946,982,944,970,974,977,949,937,946,958,957,963,946,962,976,943,967,1
942,930,936,935,952,894,978,954,982,941,908,916,959,957,939,944,936,946,958,977,943,929,956,949,951,941,933,971,954,931,930,945,957,938,937,965,944,953,944,939,968,961,960,938,948,952,919,959,925,948,953,954,961,934,966,959,984,940,959,916,949,957,925,939,984,936,936,930,932,972,943,951,945,954,965,961,927,952,962,957,974,954,939,979,914,996,1022,1045,1070,1147,1207,1223,1218,1237,1251,1183,1139,1088,1046,1008,990,958,934,973,951,946,941,938,943,978,963,946,921,945,945,968,961,947,957,947,964,936,952,962,948,958,930,955,953,963,919,972,947,957,931,913,963,939,958,950,940,963,930,949,960,953,969,940,960,945,946,949,934,982,987,936,951,952,943,947,955,943,945,952,962,952,953,941,940,982,952,963,924,967,940,946,950,949,950,950,962,951,935,961,961,968,945,0
940,927,978,959,933,975,961,953,949,941,947,948,925,971,944,960,934,943,961,931,932,972,968,927,939,954,938,945,944,969,942,950,953,947,962,964,952,948,934,948,955,915,949,938,933,961,956,972,949,954,960,955,944,963,960,957,926,973,943,926,915,960,950,940,956,976,976,947,959,930,933,978,930,970,959,937,955,951,931,952,938,956,959,944,977,999,1024,1044,1092,1145,1186,1243,1240,1255,1235,1222,1143,1068,1030,1013,989,968,952,967,972,940,951,980,940,939,990,936,982,943,949,955,953,943,955,949,945,926,972,943,963,957,942,984,969,914,957,962,957,943,946,943,955,939,938,970,950,947,957,948,932,939,941,966,962,948,940,929,939,947,970,946,954,945,964,937,942,961,972,967,978,970,963,915,940,960,937,968,975,938,964,969,953,938,955,967,951,955,955,947,942,959,950,0
970,941,925,966,956,950,953,939,949,925,959,959,956,960,965,953,941,955,953,940,946,970,955,939,986,973,945,948,937,935,933,988,939,927,938,940,934,939,954,973,923,940,922,943,953,938,950,944,978,935,972,935,964,977,951,937,943,955,956,962,958,964,971,950,971,959,947,930,917,945,955,931,972,970,935,1070,1103,1087,1121,1167,1145,1167,1178,1243,1197,1213,1265,1285,1292,1302,1312,1306,1309,1304,1311,1325,1302,1280,1270,1262,1263,1180,1207,1195,1181,1176,1147,1132,1110,1099,1110,932,947,976,935,960,936,949,934,984,964,959,929,954,938,970,947,947,943,935,949,948,950,954,957,943,937,965,929,944,959,925,953,966,945,933,970,955,988,937,962,955,935,958,948,931,940,950,944,934,955,963,961,944,949,940,962,949,951,939,969,960,939,971,981,956,938,972,969,950,966,952,959,959,973,964,948,1
967,956,954,960,927,954,956,932,963,945,968,960,964,952,955,940,947,946,928,945,991,944,968,923,953,931,931,946,918,945,941,968,953,978,958,946,951,942,947,935,955,972,923,954,954,980,981,939,930,978,931,935,975,952,957,950,950,942,951,947,947,963,945,930,972,980,970,966,932,936,963,954,962,926,958,1022,997,1027,1041,1055,1071,1050,1061,1092,1060,1085,1113,1096,1107,1106,1123,1138,1129,1113,1135,1139,1125,1082,1099,1124,1082,1097,1065,1085,1061,1063,1033,1040,1020,1011,1018,955,953,946,957,921,949,930,962,943,933,960,971,954,954,927,930,934,955,926,957,963,950,934,928,952,939,958,948,952,949,962,926,982,954,949,952,948,950,932,957,964,957,943,944,959,967,963,951,958,962,947,961,949,969,937,968,952,943,924,937,935,961,940,943,940,958,966,928,972,955,929,925,948,962,952,964,1
961,942,970,942,955,949,957,952,957,926,957,960,938,937,924,932,944,965,926,963,953,952,952,960,972,951,976,952,965,931,950,943,939,950,949,962,971,936,928,928,924,956,942,944,933,947,970,937,960,963,993,921,940,960,947,946,944,965,932,962,937,922,969,944,942,951,930,936,939,969,945,948,939,973,955,1093,1074,1085,1115,1136,1156,1178,1186,1209,1229,1233,1274,1294,1260,1304,1326,1313,1308,1305,1309,1315,1308,1280,1244,1268,1260,1213,1194,1223,1182,1185,1152,1157,1099,1097,1062,941,970,954,941,933,963,923,953,956,949,939,923,964,955,908,938,959,957,953,950,948,945,974,957,934,965,945,951,928,935,928,973,934,947,954,948,956,947,946,958,963,932,935,942,969,934,951,948,917,962,951,953,924,941,949,942,950,956,955,936,945,952,940,978,946,938,964,963,912,950,948,940,921,948,960,959,1
955,958,938,949,965,964,938,933,949,941,915,901,929,960,926,956,938,946,947,971,929,939,952,945,967,955,930,945,961,950,967,950,955,939,924,934,961,948,946,983,971,964,923,958,948,945,951,955,947,945,948,949,944,963,952,942,972,962,934,951,938,966,971,939,927,969,951,938,939,930,954,946,985,950,952,945,953,979,953,946,975,948,951,931,946,975,1004,1054,1075,1161,1171,1238,1240,1268,1225,1187,1110,1090,1067,994,988,957,926,941,949,934,970,942,902,942,936,946,970,949,944,960,958,948,946,960,959,942,925,932,955,947,963,971,969,979,927,938,938,934,931,954,937,949,958,939,953,972,948,950,946,959,934,927,961,954,959,991,959,944,951,947,947,950,951,953,937,965,953,951,953,965,949,945,943,941,937,935,931,934,937,949,948,939,984,964,940,921,923,975,958,948,948,0
953,937,954,960,944,920,967,950,933,923,945,956,914,952,956,966,962,925,944,963,920,935,950,954,939,944,978,952,962,961,907,946,960,952,940,958,940,967,952,939,963,937,922,965,962,958,925,948,983,935,915,972,925,959,952,969,946,936,925,962,946,970,948,967,936,955,964,944,929,934,960,930,941,951,958,955,959,944,929,923,965,964,951,951,958,987,993,1037,1055,1144,1197,1233,1250,1241,1227,1163,1146,1065,1061,1012,992,978,944,944,959,944,932,937,933,928,935,965,941,942,971,959,966,958,963,942,922,936,918,943,960,941,947,932,952,961,977,936,919,925,956,960,968,926,980,931,955,954,964,957,959,948,949,918,929,948,959,943,958,954,957,963,949,981,959,940,943,944,956,918,934,952,949,967,944,911,935,925,961,953,967,931,953,942,927,962,956,959,942,971,969,964,932,0
939,963,960,949,965,972,946,943,959,949,945,950,954,930,932,927,953,942,955,973,960,990,948,924,960,952,951,911,954,957,934,948,957,971,955,932,963,934,936,950,938,950,959,937,968,951,962,956,965,972,944,970,966,958,926,965,966,961,951,953,931,960,944,947,947,941,959,971,940,936,956,953,966,934,956,933,931,954,957,953,953,957,959,963,982,995,1009,1064,1073,1148,1206,1255,1264,1260,1247,1170,1150,1100,1049,997,989,968,937,933,954,974,932,951,977,925,966,940,951,950,944,923,956,973,966,950,954,965,952,968,964,946,965,959,953,931,945,924,960,968,969,954,943,942,921,947,944,956,982,940,939,945,955,958,955,963,955,946,947,961,932,945,944,985,954,939,938,956,937,950,967,954,962,956,958,922,961,927,950,963,932,959,947,963,976,934,937,951,972,912,936,960,961,0
963,959,949,948,959,925,938,964,936,927,937,958,965,959,960,972,956,960,984,937,938,926,932,962,951,953,944,965,949,952,943,975,970,923,949,949,940,968,956,926,959,956,927,961,967,941,954,956,941,962,930,939,953,934,934,924,948,986,959,940,949,949,950,950,934,959,940,960,937,948,960,937,968,958,933,1096,1090,1110,1108,1147,1156,1169,1144,1222,1235,1251,1235,1275,1268,1260,1297,1325,1322,1315,1319,1296,1296,1295,1286,1223,1240,1255,1185,1209,1175,1153,1149,1123,1102,1115,1068,928,946,971,956,958,958,946,966,952,954,951,966,962,935,952,951,958,952,945,925,938,954,942,958,943,957,950,962,923,950,969,973,942,936,968,969,959,936,941,934,957,950,963,945,952,955,961,939,934,955,941,929,938,946,965,938,949,925,968,975,960,956,947,964,955,926,953,928,942,939,958,945,934,971,966,931,1
942,940,943,959,955,964,977,921,963,971,946,942,956,965,959,939,950,946,929,963,957,938,911,981,948,941,967,980,951,930,960,927,938,945,952,962,960,959,963,973,961,973,965,949,924,946,969,961,964,957,958,959,934,948,915,947,940,939,983,958,968,937,940,951,938,962,936,960,947,942,927,978,974,922,950,964,975,923,980,976,929,923,941,976,967,987,992,1044,1065,1187,1195,1209,1264,1254,1217,1183,1109,1103,1038,1040,956,979,963,915,959,950,949,956,976,958,943,953,943,929,953,967,965,935,926,963,944,976,930,956,950,978,948,976,953,968,961,927,940,979,965,988,948,963,953,939,970,936,941,928,961,960,957,958,944,968,935,964,938,930,946,943,954,971,963,959,939,963,956,943,930,945,944,947,924,978,942,953,954,952,940,925,954,976,960,950,961,937,939,970,952,934,942,0
935,965,977,970,932,951,955,956,939,935,933,946,936,935,944,969,932,948,930,937,961,923,948,933,914,979,935,942,947,963,944,976,956,955,974,969,984,957,961,942,924,970,927,936,942,939,952,967,965,958,961,941,942,962,952,979,965,947,956,955,971,967,948,939,949,964,939,907,940,954,955,929,974,948,946,868,857,849,809,824,829,813,797,783,804,763,772,732,753,757,738,729,724,727,742,733,734,736,766,766,788,763,801,802,824,828,809,837,870,860,882,956,961,947,945,922,973,950,917,937,987,951,930,931,952,952,931,950,992,916,963,980,955,945,941,919,979,933,945,942,936,951,974,959,934,938,957,943,967,942,963,942,960,929,957,948,958,942,951,964,953,962,978,943,949,928,954,968,938,940,948,948,971,942,966,943,954,933,967,941,973,957,932,967,956,952,926,1
950,949,953,953,943,939,962,983,950,973,955,975,948,934,933,928,921,941,956,943,953,945,987,948,931,967,963,946,935,950,962,933,930,923,950,970,967,929,939,964,951,946,937,949,961,937,964,949,954,945,938,954,974,959,944,959,942,945,934,960,941,960,961,944,975,963,961,933,947,929,969,961,956,942,962,899,887,889,868,854,806,828,790,802,796,765,775,767,747,757,721,719,736,775,756,731,743,741,752,757,783,791,817,787,811,821,835,857,876,873,872,950,960,947,970,950,947,956,971,948,980,951,935,965,973,939,938,964,944,942,965,953,949,954,945,957,940,949,931,974,935,965,972,939,944,952,963,924,925,938,941,963,960,976,932,941,954,941,939,931,960,962,929,936,978,939,962,942,972,936,966,932,956,932,961,949,953,938,947,946,960,982,950,969,960,945,952,1
964,974,933,959,966,956,926,948,959,960,936,938,954,932,981,951,986,952,951,937,951,961,959,976,935,955,956,949,956,945,941,968,954,917,943,972,954,956,952,957,958,957,931,949,932,990,947,942,943,930,967,941,939,952,945,967,969,961,940,959,961,948,950,954,937,954,942,928,951,993,967,941,930,954,950,1010,1022,1027,1032,1059,1038,1079,1047,1085,1098,1105,1104,1113,1088,1127,1112,1142,1125,1135,1143,1117,1117,1118,1089,1111,1119,1094,1084,1050,1066,1060,1044,1013,1036,995,1012,940,965,953,950,957,943,931,960,944,956,981,952,952,959,946,957,949,911,930,974,973,921,930,952,943,923,970,929,939,945,937,950,953,952,982,948,955,925,944,950,957,960,989,946,941,947,961,975,932,938,965,918,953,958,962,940,928,927,955,945,974,918,940,955,944,964,920,946,956,975,966,925,957,951,951,952,1
964,941,938,989,960,943,932,947,957,948,972,935,956,956,933,967,907,982,948,951,964,946,930,954,958,957,939,957,947,939,927,927,956,959,918,940,942,957,928,966,958,939,966,957,941,975,939,940,928,952,952,951,930,975,973,978,970,935,947,921,924,938,937,957,938,956,956,955,955,934,956,972,951,962,944,940,945,941,956,947,935,951,945,970,972,1003,1013,1054,1110,1115,1177,1260,1249,1286,1218,1142,1128,1067,1056,1011,966,977,971,932,963,928,978,938,921,947,955,942,947,963,959,948,965,954,947,948,956,951,932,929,934,987,912,967,944,952,938,932,951,967,950,934,960,949,967,963,973,949,945,940,959,950,951,994,946,974,947,961,950,956,955,944,953,989,960,948,943,974,943,932,945,929,933,934,955,943,962,918,944,955,970,967,927,907,952,966,938,947,921,935,954,947,941,0
947,954,947,972,954,965,940,968,946,974,944,964,932,950,962,962,980,934,955,923,963,940,970,947,955,943,950,965,949,956,976,925,925,948,946,927,941,959,965,963,962,956,944,972,933,961,939,957,976,959,920,933,961,931,953,967,930,946,971,933,963,947,966,924,956,960,963,951,934,947,945,953,933,953,935,974,950,961,945,932,949,928,937,957,966,988,1015,1087,1078,1168,1196,1205,1221,1245,1216,1180,1110,1088,1016,1023,953,947,925,960,914,969,929,931,948,921,948,947,918,923,984,949,930,961,931,927,966,977,950,934,948,956,972,952,944,956,919,954,959,967,943,964,938,964,932,958,959,948,948,927,958,975,965,959,947,947,938,958,935,951,955,953,941,949,957,948,945,949,974,956,944,951,948,946,953,946,975,961,970,953,981,970,954,939,949,957,978,974,942,947,931,945,969,0
950,965,925,972,957,975,945,945,987,954,958,960,979,936,935,956,944,951,932,926,937,952,963,937,959,947,948,967,961,929,964,948,977,950,958,942,946,964,949,926,956,957,967,937,935,953,962,924,964,941,944,940,938,940,937,955,974,948,955,929,970,960,941,920,982,958,949,960,905,956,982,939,946,948,924,964,932,958,941,976,963,950,922,956,968,1012,1008,1055,1095,1152,1200,1221,1254,1238,1214,1173,1135,1089,1027,976,1005,969,938,942,949,984,985,918,962,957,921,966,944,964,924,963,957,937,980,957,930,945,973,975,941,938,939,963,953,962,967,938,967,965,951,935,941,967,954,984,979,935,944,967,959,947,965,959,954,924,946,958,944,946,966,921,960,947,951,989,927,963,912,938,963,943,956,949,993,951,956,934,938,932,946,951,933,965,912,933,960,940,967,942,930,945,950,0
944,956,968,936,902,969,943,956,950,944,966,946,940,946,936,906,960,962,967,949,995,958,928,917,958,915,947,942,958,967,958,945,967,955,958,940,963,912,941,954,946,934,947,951,973,968,943,943,950,959,937,962,963,940,959,973,940,950,926,958,934,950,963,957,947,916,964,1001,963,934,940,934,961,958,921,1005,1025,1026,1066,1058,1047,1058,1080,1074,1093,1082,1123,1090,1122,1121,1128,1113,1142,1127,1166,1137,1128,1075,1100,1109,1106,1068,1085,1074,1069,1052,1051,1031,1055,1020,1025,945,959,973,967,943,953,943,940,938,956,959,946,930,953,953,938,940,938,951,974,936,963,965,954,947,969,976,942,941,948,957,934,935,972,963,958,928,951,953,919,945,945,913,949,960,936,937,954,955,942,938,933,939,945,945,971,951,964,929,925,920,941,948,926,971,950,947,945,937,952,939,929,942,933,945,948,1
950,926,921,954,948,933,971,959,952,948,939,952,946,954,943,973,950,955,948,942,927,953,968,915,933,954,961,950,977,931,958,924,947,948,922,942,936,962,920,966,909,932,943,937,972,944,995,950,957,937,963,948,966,961,940,947,962,944,935,964,939,974,953,933,986,931,964,960,933,962,949,952,938,956,967,968,959,959,953,961,957,962,956,970,975,1012,1022,1076,1103,1131,1174,1212,1238,1245,1237,1178,1148,1084,1040,1003,1014,948,931,938,979,987,976,931,941,959,933,934,938,966,927,964,965,935,960,974,953,919,962,956,956,959,956,950,930,932,958,971,970,946,935,939,982,956,976,954,940,942,923,971,921,934,954,958,992,934,946,935,958,921,936,944,952,954,940,951,949,962,942,962,928,921,951,920,955,931,954,954,914,962,986,932,951,967,984,949,939,931,967,930,957,947,962,0
965,952,971,915,949,936,944,947,947,946,936,939,941,954,938,965,924,936,944,921,968,946,966,947,954,926,925,960,964,971,947,952,972,979,975,916,976,960,950,955,945,935,967,938,932,952,951,958,968,967,939,921,947,942,960,961,941,964,960,938,933,948,970,944,983,942,950,987,938,935,940,953,944,976,931,941,933,972,966,952,947,931,945,979,955,1007,1002,1025,1077,1135,1197,1215,1253,1255,1239,1176,1113,1085,1044,1016,982,973,947,939,943,953,934,960,936,958,930,959,942,940,950,944,951,936,957,954,965,940,973,907,935,978,973,955,964,962,983,959,970,952,953,946,952,963,958,978,959,964,977,935,938,930,969,960,975,958,946,962,962,937,939,912,946,964,954,966,972,936,940,956,947,949,954,948,933,965,949,947,961,954,937,966,961,955,929,947,972,956,974,953,927,943,915,0
946,939,943,929,954,949,945,940,944,955,952,951,969,958,933,969,943,954,946,950,961,945,955,967,965,943,938,974,950,948,977,928,935,941,939,929,964,955,935,928,940,967,961,962,955,958,961,969,961,930,936,922,952,983,963,979,916,930,929,949,963,966,967,967,952,927,972,959,940,919,975,956,966,961,950,991,943,955,968,936,938,958,928,961,964,989,1015,1020,1082,1151,1178,1210,1248,1244,1206,1186,1116,1102,1041,1000,989,988,954,945,953,960,947,972,940,965,955,919,960,938,936,971,942,947,934,967,960,942,935,957,955,961,961,916,978,955,944,942,958,949,982,936,940,964,957,962,964,944,948,952,947,931,953,950,939,948,933,955,926,956,947,977,937,930,949,939,961,942,926,947,965,957,940,937,959,912,920,959,951,960,924,931,930,944,926,957,940,931,940,944,944,952,923,0
928,924,966,954,966,964,958,944,956,946,957,935,949,947,932,966,975,939,959,962,961,980,961,956,967,948,943,937,927,948,970,957,951,928,955,922,960,963,950,946,983,942,938,942,903,951,922,937,910,939,948,959,948,990,971,972,934,957,953,957,929,945,953,951,933,938,937,968,976,945,949,964,924,923,971,974,944,941,930,944,987,963,941,928,968,968,1025,1070,1079,1136,1182,1207,1233,1246,1231,1194,1129,1122,1057,993,956,968,926,938,947,966,960,956,943,974,931,953,945,956,953,976,947,937,952,924,958,954,970,963,947,924,941,954,943,938,951,961,929,950,964,940,930,994,929,940,927,952,959,945,952,975,948,957,941,941,965,944,942,943,932,943,936,943,931,934,923,950,964,938,950,957,958,951,979,970,932,942,933,942,950,943,945,956,954,949,953,910,941,927,965,968,921,0
950,951,938,951,959,952,942,924,943,941,949,958,940,947,962,963,930,931,928,961,943,968,952,947,968,948,936,959,928,970,944,973,931,908,958,953,943,932,949,937,944,939,945,946,935,943,957,930,966,932,948,970,934,950,930,931,964,966,960,964,970,935,944,929,935,945,919,948,938,942,929,966,960,949,975,880,858,827,855,851,856,801,807,797,793,786,771,753,702,740,750,731,740,751,713,749,743,787,756,739,812,764,796,813,829,828,816,860,862,881,882,950,981,957,945,967,951,942,957,946,945,937,960,968,952,932,956,921,939,934,943,937,955,974,939,952,947,933,923,958,934,968,983,916,957,937,929,955,982,956,955,950,928,950,922,918,953,934,958,962,944,943,949,949,929,948,946,953,927,935,945,952,964,924,939,925,938,955,968,949,933,943,950,924,945,944,959,1
940,952,951,953,978,912,955,971,931,967,955,964,971,946,960,956,958,963,945,947,933,925,964,945,980,948,963,984,949,953,1003,953,953,920,909,947,935,950,972,951,955,943,950,931,945,940,957,940,950,962,936,956,959,892,950,942,958,953,938,959,947,942,930,923,961,936,968,951,938,955,962,952,948,954,936,1074,1090,1113,1109,1134,1159,1184,1212,1221,1220,1224,1263,1284,1302,1293,1332,1313,1306,1305,1292,1295,1301,1287,1285,1257,1241,1245,1219,1186,1208,1154,1122,1123,1107,1114,1052,961,944,935,969,969,947,927,952,965,971,953,937,948,958,948,910,937,929,952,942,952,937,954,957,956,924,955,933,964,943,945,920,942,951,976,932,974,928,934,940,940,955,954,940,945,956,970,952,930,942,933,939,932,960,958,932,959,947,957,936,965,937,942,984,940,949,948,947,948,943,955,930,947,945,958,935,1
971,946,960,953,910,929,950,942,926,971,978,975,969,944,934,920,946,949,960,954,963,955,965,925,923,942,917,970,959,955,937,939,933,936,921,930,922,950,969,974,951,938,979,951,948,953,929,969,950,957,943,971,938,931,936,949,950,923,943,965,966,941,971,974,951,955,947,993,948,915,939,958,935,950,941,853,848,872,838,857,834,813,790,791,787,781,774,759,744,748,724,722,728,726,730,761,738,739,774,775,768,803,776,784,784,823,828,842,856,896,888,943,956,968,956,967,964,951,949,959,955,939,927,931,955,963,925,957,949,936,944,938,946,948,948,942,917,947,951,958,955,953,967,944,962,961,946,928,974,969,966,940,969,943,946,954,939,924,941,935,961,957,953,933,974,936,916,972,947,927,957,949,944,946,963,972,952,933,969,946,948,950,963,967,947,943,937,1
926,956,964,929,928,928,951,937,944,950,925,964,939,933,943,944,933,972,963,959,941,954,930,939,944,940,942,994,966,962,967,953,941,939,934,927,968,978,951,951,984,944,950,963,965,914,956,949,948,927,955,936,955,949,969,971,928,945,948,946,965,949,934,956,948,962,964,938,944,928,936,946,930,965,920,954,957,956,954,950,964,946,952,918,963,1008,1023,1056,1088,1115,1200,1206,1257,1288,1207,1185,1157,1090,1034,1021,974,934,976,946,947,946,935,941,966,970,943,977,962,961,961,934,925,962,938,940,925,947,945,931,939,945,939,916,953,967,949,940,956,961,930,932,942,998,934,923,963,931,967,922,945,946,952,943,954,946,934,947,949,915,950,937,968,946,971,932,947,950,972,954,974,936,972,930,965,930,955,943,951,949,961,966,934,967,925,956,960,950,950,936,956,921,951,0
920,966,953,951,974,950,948,956,962,949,926,988,954,951,980,942,962,933,939,968,949,940,936,946,979,951,943,962,937,958,947,951,944,937,976,968,964,943,929,979,958,942,938,952,936,932,950,953,954,938,948,956,944,958,953,927,954,944,949,956,958,963,948,939,936,967,946,923,937,971,994,969,934,942,896,1054,1126,1091,1134,1130,1163,1172,1163,1240,1245,1277,1283,1278,1271,1291,1303,1342,1292,1297,1284,1299,1287,1282,1277,1272,1236,1234,1221,1181,1144,1170,1163,1118,1077,1086,1032,964,963,930,949,935,970,943,956,959,950,961,946,955,951,949,961,987,964,947,962,938,934,928,959,944,920,960,943,990,975,958,952,930,965,974,935,945,948,962,952,955,947,943,971,959,926,963,940,930,974,945,953,969,948,959,968,930,952,931,938,960,948,959,932,930,940,977,950,939,966,982,961,918,936,971,954,1
958,966,931,934,933,966,943,962,904,937,957,958,959,936,952,943,946,957,935,964,921,936,945,949,962,930,951,942,984,943,943,970,937,959,968,940,962,936,957,966,940,977,950,940,945,945,925,936,955,922,929,959,935,991,951,959,939,959,962,920,951,942,943,970,964,942,973,938,955,938,951,971,938,974,960,1107,1073,1094,1120,1136,1194,1197,1200,1226,1248,1256,1247,1273,1308,1309,1310,1307,1271,1307,1305,1281,1276,1267,1270,1262,1258,1214,1200,1193,1190,1164,1136,1121,1127,1096,1068,925,973,935,942,934,947,957,977,961,962,962,971,949,953,946,924,937,974,979,955,954,929,953,927,942,944,925,955,937,949,936,934,928,940,933,943,971,920,924,941,916,941,941,930,942,971,972,966,946,963,959,964,966,972,957,947,989,958,950,973,955,954,908,930,959,932,935,965,960,949,954,959,916,923,935,944,1
939,941,935,943,970,945,943,945,953,969,982,960,943,955,974,955,942,961,968,955,955,933,962,956,958,944,959,971,948,938,938,924,917,936,946,940,943,955,935,954,954,958,966,957,951,933,935,946,922,920,938,953,949,952,987,959,957,973,944,947,955,945,957,946,960,952,943,945,945,957,972,960,948,945,954,1055,1087,1104,1078,1163,1169,1181,1188,1199,1248,1280,1266,1270,1276,1287,1277,1312,1294,1297,1299,1315,1288,1298,1284,1248,1253,1217,1205,1208,1198,1149,1142,1109,1111,1103,1065,956,939,934,944,925,958,917,942,940,932,932,953,941,965,946,962,955,963,939,957,936,940,943,952,935,957,953,944,941,957,952,973,944,943,935,935,929,949,979,953,976,971,934,943,950,948,976,944,961,953,948,951,965,945,973,960,965,962,955,939,962,958,978,951,933,953,930,948,952,969,927,949,938,950,943,948,1
951,949,947,937,929,956,938,970,975,946,964,976,967,906,963,939,959,960,962,945,983,954,932,971,941,944,959,942,950,948,954,964,958,949,966,952,954,943,951,930,941,962,921,946,924,951,974,971,959,947,968,929,938,952,921,960,953,971,955,930,942,943,944,959,938,945,978,959,918,968,954,961,958,965,940,872,855,862,843,865,838,808,773,783,780,793,765,754,746,750,730,728,747,729,724,712,753,772,759,735,772,784,794,804,811,825,846,883,875,856,878,950,939,928,938,933,958,950,963,941,923,944,973,953,962,967,944,936,968,972,959,948,944,935,967,938,954,961,958,931,965,963,937,943,956,981,939,952,959,950,947,968,971,913,962,956,957,939,938,944,936,955,937,961,968,947,958,952,956,960,944,948,939,928,958,960,939,955,933,956,951,926,929,952,944,941,941,1
940,939,964,960,983,956,931,928,923,980,940,946,940,968,924,936,957,964,940,925,985,950,955,940,955,938,966,952,948,965,977,954,943,937,956,969,946,966,929,922,942,948,947,964,929,945,959,923,940,942,943,972,942,950,957,964,925,953,961,924,936,949,924,938,935,960,953,970,936,938,943,933,935,947,923,940,933,966,961,955,938,964,966,941,982,977,993,1082,1082,1147,1210,1198,1239,1247,1222,1186,1137,1106,1033,1006,976,955,951,963,967,954,958,940,987,948,975,945,962,943,936,933,989,939,948,956,961,974,950,943,968,948,968,940,911,953,960,940,945,955,956,969,959,952,953,950,941,954,944,951,944,949,932,961,937,951,935,940,991,944,961,959,971,939,932,955,942,924,941,952,936,963,939,925,974,969,944,937,970,935,962,974,954,937,922,949,941,939,959,969,968,958,970,0
944,960,944,962,942,972,930,939,953,947,940,964,983,958,944,967,943,921,930,942,956,957,952,967,941,957,940,933,943,939,948,954,953,952,926,942,945,955,962,932,928,948,951,966,934,938,954,982,943,934,970,961,929,960,930,977,967,948,957,933,982,957,941,927,953,942,964,919,948,943,961,948,960,916,948,952,952,952,953,973,963,933,957,933,971,988,981,1024,1096,1142,1167,1239,1239,1255,1221,1191,1133,1089,1038,1028,998,957,936,967,956,971,965,952,937,929,968,949,952,947,956,950,971,923,952,941,937,954,949,931,960,943,943,919,955,951,926,982,955,964,936,949,941,929,951,933,926,940,945,965,945,976,926,970,917,947,958,956,952,951,968,956,963,951,923,982,944,960,931,963,971,936,936,943,944,907,923,966,973,945,968,971,958,954,948,964,956,976,946,945,940,983,941,0
939,965,952,939,941,932,924,943,970,975,959,951,955,966,948,948,945,954,992,970,961,984,938,933,961,964,950,966,952,979,955,938,939,929,936,932,951,963,934,977,918,933,967,965,936,953,956,926,946,939,990,954,949,954,952,943,953,940,957,924,941,959,955,969,927,936,953,969,932,978,955,946,974,961,973,965,961,957,969,944,955,977,931,937,976,970,989,1049,1091,1133,1166,1230,1274,1230,1192,1188,1147,1090,1051,998,988,957,935,988,946,957,952,942,963,926,987,941,962,967,966,950,949,953,948,942,917,954,969,963,902,959,971,952,962,961,948,953,977,983,946,945,954,942,950,962,936,932,973,956,967,950,932,964,965,945,926,948,936,949,947,919,936,925,958,944,965,957,929,942,930,952,927,935,948,947,961,950,945,968,963,941,949,989,945,933,940,971,960,957,948,942,963,0
952,934,966,946,953,942,961,943,934,937,966,952,918,942,929,921,935,964,937,957,942,974,932,939,961,925,937,942,972,943,947,941,951,966,967,953,948,960,938,981,976,997,941,940,924,940,934,953,947,971,950,919,968,926,941,926,936,941,956,950,931,935,946,916,969,960,962,944,925,959,936,941,980,937,946,1074,1098,1101,1117,1144,1159,1154,1216,1233,1233,1257,1290,1267,1287,1271,1322,1303,1326,1322,1293,1308,1301,1297,1298,1286,1265,1243,1212,1191,1179,1149,1141,1092,1098,1106,1088,951,964,930,940,947,952,946,959,927,924,941,942,949,951,936,932,953,947,955,964,982,954,945,935,950,941,922,947,957,947,958,932,952,964,931,958,941,935,974,948,965,968,954,947,953,944,949,946,953,951,952,965,968,953,957,947,929,950,937,963,969,947,918,948,974,968,953,955,948,950,963,946,967,937,922,948,1
